-7.46364727741389
-8.93010884279057
-6.17228697728413
-3.9143315720015
-3.68270317487065
-0.786337539866892
-1.41746873583713
-7.35916415718516
-2.05210561275875
-8.66456614449828
-4.05647896309204
-4.41414511719178
-5.55014960144651
-3.79237878912154
-9.25129782992296
-0.310255839295865
-3.56667998045636
-3.40944293506976
-4.0276528999919
-3.61574236951504
-3.48740078474285
-1.38423937170808
-5.83818712708415
-3.23499770197983
-4.96745758010141
-7.37722077255554
-6.71734575156943
-3.39511453458212
-5.14097323736844
-5.45109889332697
-6.43074386441036
-3.9760708165403
-3.41142414598721
-3.54696616411648
-6.25625217396582
-2.40710641442238
-4.41646111479535
-7.26063871768314
-3.84710430474469
-4.31818738177721
-4.65127508543535
-4.47280989863358
-2.96455180548321
-2.90686155333461
-4.45008787810265
-2.52274414653824
-0.221099497969973
-5.54663872156289
-4.50021393806107
-1.30921249934186
-9.17287518800185
-1.24310395485952
-5.17648051658854
-3.53087995805874
-3.68856905197868
-1.37241665977709
-3.4052519139188
-3.71738819092232
-3.84099777697151
-5.04589499840277
-6.52995389079944
-0.393419810249453
-2.87853702344119
-4.73822052482202
-1.3311752425375
-2.61006288259983
-1.58044374050102
-2.66164994186938
-2.33287340019114
-1.65092731434744
-0.741932640695879
-2.57297622731369
-2.58964735606749
-4.13220052164006
-3.03990316625709
-4.90100006954746
-2.83207282760086
-8.49574396640609
-4.6980468660177
-2.05753598680002
-0.316428517563973
-2.0456250262304
0.0588300978258421
-2.43331933830936
-5.5618153361341
-7.26350902648144
-7.54967765147883
-7.47831501120498
-10.9266529652799
-2.88027795957065
-5.56069055393409
-4.36359848159628
-3.74109359229112
-4.88767014297187
-4.42300454721924
-6.4233040474775
-8.89861718435499
-7.14502183223026
-8.0563713298485
-8.64957523499562
-2.60351629256987
-4.30435112496119
-2.05287823738982
-5.52868490342693
-4.86946969411954
-5.74138026930266
-3.30290982711074
-5.1487550082382
-5.60307119164698
0.280555957573466
-4.07344373491196
-8.87684201857284
-10.1892038967002
-10.6536984024644
-11.8151934303169
-8.65483071164824
-4.72195591090095
-7.14596864257608
-5.2547802731704
-1.32719199207114
-7.24806556457348
-4.74389526094568
-6.30869696800919
-4.50190224074853
-6.15577678990519
-5.83278197890701
-4.8355555650677
-5.52145933076378
-5.74092995762118
-1.41746873583713
-3.32695658079173
-4.29993039760792
-9.86459884813222
-10.4839367776925
-5.15442137682868
-7.83460558875248
-3.98402940723908
-7.24038409876709
-6.73276718168283
-5.44365956892738
-5.71098150816394
-4.35264103641545
-5.06540499124718
-4.97748691376513
-3.49097685274124
-3.04740623311131
-5.52864193053258
-5.95175674904445
-3.79785695893619
-4.69949551060395
-4.082465235413
-4.77164077437313
-3.72217674195985
-2.53875908863865
-2.67318690513961
-3.83984805976608
-4.52395302552656
-2.85483108830417
-4.9599743604388
-4.45506535544163
-5.17091049244528
-4.50691883965848
-2.2096966482095
-4.6743390919691
-5.95034589780153
-5.80754272865797
-3.70224045610601
-3.8213120926266
-3.25708572313506
-4.67654625590389
-6.7795227579771
-10.527270861146
-9.75734261413576
-5.26042645023485
-6.03047581257488
-9.73469764552314
-3.33237858835969
-2.70342951904525
-5.95376976535604
-2.00802147512625
-3.6215549827937
-3.73678700525093
-4.24638718501026
-7.00906944356238
-0.320224450691552
-5.67542646961463
-4.78356798159243
-4.61647064396083
-5.32072441234404
-2.80692363091918
-4.90961471751615
-5.02240156662517
-4.96025274287222
-3.05424412930536
-6.0521969707339
-10.2821438005817
-1.60295284229211
-2.59289141810057
-4.36152489369895
-5.88481410239557
-5.70188187400112
-10.7910868244696
-2.54861049896832
-0.847209573827099
-5.14199938707363
-6.27500764358475
-4.22494494084107
-5.50494432827002
-5.76029886634727
-9.15644290508969
-4.27652097863353
-5.12801352069908
-4.74624640334614
0.0320570978984277
-7.4326063605079
-5.7549763764429
-2.74977100920107
-5.71934303710072
-2.24275686358622
-4.14077013883606
-5.24812990803329
-5.86303850571922
-5.98047874888547
-5.32072441234404
-2.80692363091918
-0.604846252871753
-5.27146967949395
-7.91329753365957
-5.48798851529736
-5.1027394293729
-4.5558358638694
-4.89092505328457
-10.0695308382787
-0.391273580437837
-4.13422807774801
-3.9139324346835
-6.13265209281364
-5.95447577080149
-5.3077311250916
-8.64168111263575
-2.6912319060044
-3.56016606783033
-2.14257141514429
-8.49365112207358
-6.01519703377698
-3.83454223824487
-7.96152796940489
-5.04826833766176
-1.83869100681509
-5.3476255096586
-5.81555758874227
-7.1654249265483
-4.61323236734818
-3.80548954979373
-4.36424815596192
-2.60154256198173
-3.9611696801714
-6.96592087711303
-6.62915605309861
-5.20207611824869
-4.30192477838412
-1.79101704110153
-6.54836964669007
-2.63659811337064
-4.28890709568309
-5.64607112187326
-3.24326082860962
-5.36356361030431
-5.78530504706549
-3.18341804616379
-4.90194051725873
-5.17451724929153
-4.96025274287222
-4.71513485222432
-4.95309977578238
-5.09709153370399
-3.69963764716632
-7.1050666726702
-5.84540489596804
-4.14471220610803
-4.43216313592817
-7.2416762773694
-6.32882199891787
-5.96624144514374
-1.17149016855641
-3.06043181383286
-3.875726673668
-2.8377171588029
-3.8983850821232
-2.2964902066863
-4.96025274287222
-2.30728793492575
-3.50295271688299
-5.71905990068192
-5.66041888553349
-0.401015053583441
-6.89645522096518
-7.44349753243933
-4.7151779281741
-6.08190176923475
-7.8616307322748
-8.12309521419057
-6.17714662878488
-3.63662340098635
-3.95256560154972
-5.41550762911535
-5.78436706061281
-4.11319895758102
-4.02607423710238
-7.88938198566861
-5.83315611724378
-6.67876041319642
-5.54930566861095
-3.55852655368958
-2.9045696979076
-7.61382175641402
-1.14854420718413
-5.74383219400885
-8.99107001360013
-5.98866894688771
-3.35242881562017
-8.86760468291333
-5.66019741312646
-1.07250021334047
-4.87384971781251
-4.62545663887494
-2.39311503135511
-3.3934912483104
-1.99401613949323
-5.18276740702401
-3.40055489563339
-3.37846646414453
-3.98841753093721
-2.63817715999371
-5.81645303011379
-4.15188576586614
-5.53112677658227
-7.76121754895584
-6.0107079807588
-1.75638803118654
-6.83349298486133
-8.80464633079369
-4.90721149864546
-8.80270961385187
-3.89474267120122
-4.91600600858372
-2.42473411419627
-2.096503332604
-8.53591586737935
-5.04332035617194
-4.72914936460627
-7.98970677139132
-5.83710023942943
-7.56417532404403
-8.65684648765251
-2.12698496528766
-5.92846958479411
-3.90359924773385
-5.67277800135518
-4.85806544175897
-5.91705065688453
-6.15084444962274
-8.4855929479799
-8.29877779656709
-4.95262214095837
-6.76506627919373
-6.94587760688568
-4.16343235875247
-4.88373756242519
-4.69255745384449
-5.0107062634934
-4.24530532945206
-4.5062684235438
-4.11350854297744
-7.95527699071466
-8.0061086063476
-1.38992827928088
-5.22791129285228
-10.3670545333576
-4.80453433645236
-4.02829441412657
-7.01265740573779
-4.68668630135096
-4.53230031206814
-3.89664327724907
-3.31432662069943
-4.95262598636993
-6.11903746533468
-3.08943570716869
-7.80298496288718
-7.1186159497908
-7.57849400023137
-3.05618923742864
-0.997604318456414
-4.70420924560359
-4.83815784243195
-4.64306821529466
-3.60545376273913
-5.20540605311111
0.897756684270442
-6.43726374413267
-7.23188172432855
-6.12092061757576
-9.64686559022166
-3.35069960709893
-4.93658267536714
-1.43156182408105
-3.72074182083046
-3.23750884554731
-3.2785988917874
-5.22188835993536
-5.30946138188585
-5.67175941270451
-5.91404288391773
-6.14539254333946
-3.06676987957604
-3.48303762753804
-2.46154614874757
-2.59938601011327
-3.61711235651452
-4.16616814195124
-4.6372160821404
-6.28120605820498
-8.00003400680509
-3.08111373369635
-5.43086038507395
-4.93684125299027
-6.84291286753648
-7.2235212845831
-7.73932588490452
-5.42586052884749
-4.25701153198066
-5.44065584013382
-6.88153071885686
-3.00799369117941
-4.24632215730202
-3.60554229019989
-5.73893906231263
-4.31404786880553
-5.26910275468004
-4.45869715536652
-3.55762209649411
0.24725687574324
-4.59463207152295
-7.8294049436054
-6.38410398064016
-4.29082024137503
-5.2890538932061
-4.57384165945179
-5.68182319826243
-4.08027945861952
-5.75880678757968
-4.19379609560145
-7.25794235218334
-6.01142826538449
-4.3268353208209
-9.19299199094007
-11.3908393894921
-4.3743385937161
-0.746779995961259
-2.6892492557682
-4.19201731241304
-1.6033019082248
-5.10735593555765
-4.48324604759513
-4.7123768241853
-5.11182854354976
-6.01770811771203
-2.93893156505059
-3.41503355134391
0.148135364133008
-5.60659765750745
-1.79359837195817
-4.32625130492624
-2.52417417748284
-5.08092404386547
0.0766611794676101
-6.18781206859834
-2.86402311401368
-5.73388687298538
-4.08369060617334
-5.30504490154077
-3.99352113434389
-7.94198839105323
-10.7500572904348
-8.18424739347224
-3.99029138072569
-3.30613683412876
-3.46768376863475
-5.68164132009424
-10.7626200791183
-3.04194332697281
-5.33635414880108
-3.60213037872329
-5.39828714938153
-6.48275068457983
-2.72333658085428
-1.78288353563358
-1.8137828285615
-6.36376000502405
-4.18714043463497
-2.49108856810261
-4.52459208149658
-11.8636772530537
-4.83282350771387
-2.12558120775985
-4.72589334074701
-2.08119420354193
-3.27851080154731
-6.09800938313047
-5.88235381123947
-5.12254398764286
-12.957799221555
-4.89312661974723
-7.46502296305099
-8.45720590976819
-2.5272200776759
-6.46046418561911
-7.18968222959574
-4.52463686740766
-7.18308332998294
-3.6599213704574
-4.32365582018516
-0.714731404325973
-3.87808161371425
-1.14760820355581
-6.73756899097566
-1.53976954653667
-6.6906629379985
-7.92568241886992
-5.15746757913716
-2.6638111291412
-4.46954184124239
-5.19227329166789
-4.14077013883606
-4.9624718101722
-6.33541130797358
-10.4983567144241
-10.0224627201291
-3.36344463322077
-7.35614885733564
-3.95139866669252
-3.87012456939174
-3.69264326100026
-6.98807584408889
-4.34012643206365
-1.50590414729287
-3.17030400590287
-6.50634052282773
-6.02781680684216
-4.6920508705841
-6.06273544146349
-6.17104250639477
-9.88039599877507
-10.8303935836391
-6.22606013227487
-10.0349155988423
-6.67049625934039
-8.87861584167619
-6.36665993379942
-4.29293052312893
-6.68606433974319
-4.1698875816216
-2.01826726842972
-0.509744815929761
-2.16671903212094
-3.08489220799131
-4.90497299772714
-5.97194167214225
-4.37870191594145
-1.24941625384531
-1.90718921168829
-4.71962251363031
-4.08943905637557
-5.69851589869686
-3.90758316422259
-4.38976772408785
-5.26019938819934
-2.52101216406296
-4.69570952888861
-5.14225466304683
-5.49305844244097
-3.95725830233909
1.53009089356968
-3.98625846542111
-7.03840216051286
-5.81041398562994
-5.18187048974234
-2.01706391990234
-4.89445105034766
-7.33197515013433
-5.79243352512585
-3.27644679201546
-4.26245811667436
-3.02979303321562
-4.5338025921401
-0.494145022035884
-3.34511608810642
-7.71487693333005
-4.91864828853914
-5.46522597654173
-6.67736269242663
-6.82236127081276
-2.40168242049915
-3.42305731191831
-2.66754962958331
-3.39047881650895
-6.12212666622397
-9.27582755363213
-4.18448504825075
-1.46924018630791
-6.27138284361853
-9.27582755363213
-3.77521632263615
-5.32597457416607
-6.74348519325385
-7.67689570319678
-12.1899482348012
-8.32682232983986
-7.91440728938442
-9.61634740864167
-5.28299640190699
-3.54311523218771
-3.78373509027382
-5.10445779269248
-6.47388994931414
-6.75907986495591
-4.31390442736767
-6.44452201365853
-5.51136024239587
-4.5728776789233
-6.43224699676207
-6.92751984476657
-3.96418357218809
-4.508820403938
-4.13251175548144
-6.73298695314852
-4.28099500787224
-5.88443881678679
-6.42217151912325
-7.4796174513155
-7.6473260289941
-3.85934506794516
-8.31749292574664
-5.49294449987525
-3.91641820935128
-5.25448306612159
-3.07446701036416
-3.04590702871608
-7.16425953455048
-4.36455248162695
-6.47137285468521
-3.87210628601917
-3.38929792104913
-4.40325708829359
-5.51972388960695
-6.54964202757319
-2.43761658065207
-4.88908572755545
-5.98037457906841
-5.72811791059766
-6.61284376832618
-2.83173917551969
-3.54586851037891
-3.39508578721362
-5.65048281437488
-7.36332487716176
-5.45010419599516
-2.15885869016342
-3.74339078628482
-6.57529252644457
-2.83465052550577
-2.88460197835626
-3.22571226212867
-6.19325517329254
-4.61378185803756
-6.2821381013124
-4.74788525721305
-7.03029513817782
-5.8302672753993
-8.04714441446728
-6.7386778764803
-5.93616694055083
-8.94651723503537
-3.39670235280235
-6.86484242954021
-3.84206912929146
-4.71304340157267
-2.74317983952215
-6.9344042530913
-6.84049119194307
-5.34893420138801
-7.0504153005366
-6.04617520124811
-6.47059377352814
-6.56639130736018
-7.73168515840508
-6.51753460914071
-5.19067914145554
-9.31232009670514
-0.834386183772017
0.299748515518394
-1.59140721798799
-3.64395481536336
-7.31001303293465
-5.1011629134761
-6.0014149268448
-4.20336256365452
-4.25026437108034
-7.02074990728286
-6.53915528004885
-9.35243250618366
-8.80513117582361
-3.14672826112229
-4.17069139979597
-2.48422708601862
-4.8898258202644
-4.38818867947535
-1.47207815784123
-3.76039428681036
-7.89170902096367
-6.5105560779608
-4.01348477510084
-3.62252090633598
-4.04194673462234
-7.50409623431317
-6.52444322889585
-1.21208295483618
-6.07124746860919
-5.0752748311477
-3.34376762621167
-7.09203673437955
-7.66386101456099
0.864168485791738
-4.42383689643649
-1.94741824589369
-8.21914519247117
-4.38094089129543
-4.37707515528123
-8.284560045133
-6.93504665539129
-4.29890150847231
-3.07990928467787
-6.03978479258786
-7.51967622599153
-9.37520551482667
-5.33668258078965
-3.2607940075718
-4.04583129297407
-4.4217191802027
-4.56866466028784
-7.11310232928584
-3.87644470450729
-4.22121324431151
-6.00257034695413
-1.6864974395352
-8.26149051389095
-6.11970163113984
-2.45520174862309
-3.9104976160945
-4.23077345409396
-6.10316933797315
-8.93976909080583
-3.44134690492897
-4.17770081176466
-6.55128908143296
-6.35191801314894
-3.91389998134726
-7.96593249999387
-6.60648795494662
-3.45707811569607
-4.60828065265228
-3.99352113434389
-1.14788833866103
-1.66010770541421
-4.5052390238085
-6.96592087711303
-3.66317563121019
-2.6969211615781
-3.06703376706102
-2.77472723429242
-5.2206797688017
-4.45287861359195
-4.46124255155751
-4.91918416411316
-8.55157708962523
-9.66422661533886
-3.61876692182886
-2.48177541182053
-5.00847049181852
-3.53683746729396
-3.76117278114428
-3.45707811569607
-3.26349387704315
-5.16287501426231
-4.60828065265228
-3.04830567041363
-3.48599022674711
-4.23597524445358
-3.88112070462125
-3.31609587705323
-5.87267614792303
-4.59644558493426
-4.40708077038545
-5.09685219871039
-2.20330500662876
-2.66668409073929
-4.19893098644191
-4.74912093683742
-4.53771731370065
-2.73037572961105
-6.14993435895798
-5.61793335360526
-6.36790565239437
-2.8866510881486
-5.86518888150309
-5.32800707569549
-6.01750621052002
-7.71334458063351
-3.24128472932558
-6.866092310876
-4.65021855704822
-5.37672602326439
-6.09940392831036
-1.92888562270578
-5.36697280462032
0.747488306612996
-4.23223999588086
-6.11975803612719
-7.84238847396617
-5.97962978247229
-7.11104836533846
-8.66836664044813
-1.59871251525301
-4.64253470620862
-3.73731128452202
-8.00923436695575
-4.48016612288384
-2.91310708705321
-9.64976897427134
-1.82378607119376
-4.65523602980375
-6.79889483591099
-8.94927674562277
-3.98561049314713
-4.84659793922497
-6.43533042126
-4.82913642188335
-7.15122725930726
-4.73351217304719
-10.6206460492509
-12.1864687491348
-4.58968494510503
-4.78429097975827
-6.26283746409932
-3.23987003558716
-2.52944616814946
-6.66160147821769
-8.04097479730728
-4.06600532566891
-3.80556517354559
-3.31347732401275
-7.92665387229949
-3.84443938068895
-4.55902165593734
-8.38081086767712
-8.23306434291773
-9.92094052721159
-5.32849840611976
-5.61865610365455
-1.56507202728212
-6.22501250229073
-2.45840744858356
-4.19687926333432
-2.32889341094679
-7.29903283535568
-4.01400741285403
-1.21882805970542
-1.36010805713709
-2.54864383443471
-3.22382214098719
-3.08414197403259
-5.03173387081457
-5.01899283602655
-7.3416520690776
-4.39693011794936
-6.1090601673642
-4.42773437277545
-1.47087155466069
-0.18472956820997
-3.22109488725678
-5.10429596625608
-3.09209668419684
-4.31463167158256
-5.14864891369504
-1.12245152791271
-8.99853669853235
1.93371567361527
2.66920937710272
-4.77379605934207
-4.09561813681584
-6.52018278069247
-9.56289464119165
-7.99555465223984
-6.10065887280281
-4.34128661446134
-1.44128086366508
-6.11782189520485
-9.58480466769937
-5.29130975775592
-5.97167937595836
-6.87918079819028
-3.99106673837416
-5.76503580241738
-2.8549216048874
-3.01451783771447
-5.95273583839919
-5.22949697433427
-3.9758884185148
-4.70644214251844
-9.09832100661032
-4.9155026730517
-3.44226658148132
-1.82620157716047
-2.45936009921098
-3.91537833287191
-5.69487796513031
-4.34974342587852
-0.836175863011333
-3.84613917697066
-5.91166968193581
-6.18118734701202
-6.14130667910167
-6.3912351447935
-5.00566837707148
-4.59616048597414
-8.90785269532799
-5.84645180990767
-6.6856417512253
-4.07831601755253
-3.67172970330012
-1.6978014185171
-5.80111333977189
-0.348671889024355
-4.79415418729231
-3.71915631421758
-2.98906877074798
-2.67770288070481
-2.68081643606877
-7.28640640719858
-6.03307089191764
-5.45300303675894
-5.85417590722449
-5.13010447079965
-7.66083758253527
-5.1687958456456
-2.61517071998567
-9.05758446497102
-10.4915102901893
-7.061344767012
-5.41303428379018
-4.85209969505877
-6.25785177968308
-3.60401345231834
-4.24557593879364
-3.65627802243461
-6.04766726281107
-10.8765427376086
-4.64626405650952
-7.7948881928067
-3.19258007550187
-5.21968062666265
-5.76029886634727
-9.15644290508969
-5.25867442696725
-4.46388179439624
-4.88571507399076
-1.78083073118533
-6.05935964635886
-8.57397552106431
-3.65340593796764
-8.78295495501701
-5.31667927338724
-3.50928817283966
-4.81424705505408
-5.73468536642577
-4.69659414961625
-2.45419909195018
-6.54781239400426
-0.077527565774939
-1.61268409913569
-3.80488898697258
-4.80730598393332
-6.34662424310268
-7.93748558331233
-5.40322106822052
-7.43400795124709
-5.56424194232327
-5.97706260150206
-5.76461795826455
-6.22992532308436
-7.26009754583721
-5.66938845705934
-1.77391763886835
-1.98119090929134
-3.06584613533145
-3.71663195258418
-4.27901320095033
-4.39693011794936
-6.1090601673642
-4.42773437277545
-2.47408936197483
-1.06385524282984
-1.47742662838547
-4.90810445236915
-10.946265296272
-8.07139883262794
-3.5768469672015
-7.75188124710543
-0.253254745619434
-6.70061663652078
-5.18101206721702
-6.68763250308177
-0.460617707476181
-3.69814335492061
-3.24174849278368
-5.2710992652078
-2.9309664516492
-2.2108619518118
-4.22492858362025
-1.86664948452799
-2.0875106921961
-3.23544227801765
-0.252755995025746
-2.10389424973978
-3.98116036143623
-6.95619636273204
-3.25728408603543
-5.74356475057232
-9.09726025545909
-5.35617687332081
-8.76943489870594
-5.3818337224044
-3.50117962123263
-5.9303603335963
-3.86427327934871
-2.73358108268741
-3.92614373320691
-4.19287177644797
-9.07664459639073
-5.05247622692698
-4.23967517109627
-4.50525987719425
-10.6935193035734
-4.32776677729849
-5.06532885043777
-5.38652613483531
-4.41738403672089
-7.24575361676009
-7.82920552994422
-8.35247842087385
-5.59058662401585
-3.68195289287355
-5.73475933721557
-5.81749819336177
-9.4156476922311
-9.83439241133255
-3.92910200661176
-5.85619474276413
-5.88263945714134
-6.35437652942011
-0.976795844392143
-3.61447189019001
-5.37304492152019
-5.83175036873219
-4.25537800612275
-6.65820067285086
-7.60071531928543
-2.47502006856749
-5.77824238458991
-3.7780515222861
-5.61384211966022
-4.95593394914385
-5.35967753724922
-4.2937868123196
-3.68377811793756
-5.83787766033417
-6.16445160664737
-4.2937868123196
-4.11827338458775
-5.18187215842977
-1.10804731799325
-8.02094615058709
-5.38366907651714
-4.98601670025402
-6.22092221592754
-4.48850893704276
-4.94930634910353
-5.57022293784465
-3.48990531858994
-2.85776110942328
-6.29003186307084
-0.995262025222883
-2.19476234868946
-4.7918712905486
-6.71916874388391
-1.32253860880887
-4.14501005135944
-5.97505007611664
-4.77041392662999
-4.4230930379546
-2.75088614635346
-3.74381397612505
-2.70962646575715
-4.84329925740162
0.751099220259338
-3.55288079208232
-6.47330471212623
-8.16064448386395
-2.12490724485952
-3.54445893007889
-2.87585544623792
-3.30921471904199
-3.27381574107548
-3.09409000418899
-4.87125471658378
-1.8128954584398
-3.88112070462125
-3.31609587705323
-5.87267614792303
-4.40708077038545
-5.09685219871039
-2.20330500662876
-2.66668409073929
-3.56638106605683
-3.66396776958269
-3.70464500916481
-3.60861961707882
-2.73037572961105
-3.48599022674711
-4.23597524445358
-4.59644558493426
-4.19893098644191
-4.46212106803515
-4.2441337695363
-4.74912093683742
-4.53771731370065
-4.02818553091499
-5.44559296408606
-3.93864240538719
-5.70118900468555
-5.61793335360526
-6.14993435895798
-5.02323689068133
-5.43684453565176
-2.95985080580291
-1.57469022643536
-7.10184430888504
-5.1759295357816
-1.35537705796778
-3.59715119341244
-5.38980008172527
-5.87327391070373
-7.61524466995603
-5.3733318738987
-5.45385955392073
-5.62681017865533
-4.24940524382953
-5.08906587595308
-4.40785365385869
-8.89389758542487
-5.65581322206528
-1.77511255614799
-1.74332037883564
-4.05866093631343
-7.3416520690776
-7.01999715834665
-12.0441967426777
-4.95815089721143
-5.94017879537833
-5.3165491020812
-1.8015931881135
-4.29492697279311
-4.81111050932532
-3.92755184574319
-3.07181168857245
0.404026093498454
-2.82698117654719
-6.60910829750078
-2.77015504933523
-7.58194609366416
-1.75134142308666
-4.12158062291924
-7.73391835983536
-4.67006443044133
-1.92221049330115
-5.67380164441024
-4.14032992758297
-4.78965744501744
-5.53486612209375
-7.15364994371488
-3.75456799683793
-8.42582974572346
-7.92665387229949
-3.84443938068895
-4.55902165593734
-8.38081086767712
-4.77261346005483
-5.36395312736661
-1.74160381345272
-1.41950892294557
-3.64224644492953
-6.36926513599789
-4.73668488360055
-5.94703805579486
-2.84410503428646
-10.1212894389253
-4.44334772813738
-7.44880530907612
-5.2653553648706
-2.95407562593367
-1.13029100965393
-5.03290967700316
-6.50699585667987
-7.78302127939118
-6.12358497544427
-5.80022218533743
-6.12415316942901
-7.71085972841006
-9.00178282980389
-8.0698527633607
-8.44713805118722
-3.92967046289136
-4.96025274287222
-1.35537705796778
-3.59715119341244
-5.38980008172527
-5.87327391070373
-7.78793602347811
-8.38190501957024
-0.926186236097256
-4.21670231151114
-4.68845448149054
1.35537764595197
-5.17366478470357
-8.09536775598991
-1.47553153847489
-7.19761822678595
-7.22355394533102
-7.1050666726702
-5.84540489596804
-4.14471220610803
-4.43216313592817
-5.09709153370399
-3.69963764716632
-5.96624144514374
-7.2516172332367
-4.86327188171957
-2.37831680927624
-6.39122993100074
-6.604901395017
0.196930933391024
-3.06861652997727
-2.74264274187188
-5.59223719988854
-3.93216362374036
-2.37115863083493
-3.79644831072486
-4.56343354152774
-3.35838437684883
-5.15180535939676
-2.03185836853844
-0.921958734972332
-6.69805399123511
-0.878767945607551
-3.90984382264801
-6.45979946225383
-3.45436762509845
-3.24607237203382
-5.97101364283024
-7.0253888954508
-4.55109168885671
-4.91841187156015
-8.46850183453779
-4.78491725233808
-6.13441459090343
-5.04813797151221
-5.99696811991852
-3.53640547775691
-7.13498233599596
-4.96518657470863
-2.47859391402359
-4.00736932785178
-4.706869751108
-4.6603963644846
-5.19847546730132
-3.57135744585158
-6.14874207744924
-8.97057799351556
-4.45751952190894
-5.26851026941185
-2.22352060480219
-10.9974252261899
-5.2610748648847
-3.53329224482198
-5.19726098137164
-2.76426602153188
-5.58414898000927
-5.04070659119731
-4.77283765891226
-6.51536133539672
-5.6869274164596
-4.90845028796843
-4.24513786779241
-4.23438267902454
-2.81810069163852
-4.74395837708307
-5.56622618073363
-5.86255237172788
-4.2762290969224
-4.09020527796342
-4.2550032209467
-7.42982588753227
-7.9886778091631
-1.29498392841602
-5.86689388103527
-8.03236519116358
-7.11020060993243
-5.68143829513241
-3.05424412930536
-6.0521969707339
-10.2821438005817
-1.60295284229211
-5.49173273813909
-6.03532802891442
-5.62150531215914
-2.46372385101774
-5.57403302991042
-2.86228832350679
-6.4338472864772
-7.95720197664254
-7.87483922244378
-5.73151290596598
-10.1106078165576
-8.59434719131005
-8.03275342413558
-9.46914873777942
-10.9471989675336
-11.2512582560972
-7.68876902365688
-5.01608642503193
-4.95492603832039
-7.37740557110271
-3.78837362261003
-6.68652940344829
-4.50537173390625
-4.36611926967375
-6.19438997567242
-3.50144554938473
-2.49714841527093
-2.92986881527544
-6.87897178434361
-3.06703020259415
-3.64047766150554
-3.27658846410986
-3.05424412930536
-6.0521969707339
-10.2821438005817
-1.60295284229211
-2.59289141810057
-6.09698082105907
-7.07428427573433
-4.6642456721281
-4.52763354107538
-4.12424035729961
-7.10556861664222
-4.32014724786882
-7.35113379989565
-6.48231693064385
-6.05255894418075
-6.41820640241868
-6.55016530704193
-2.81887948158697
-5.50667547104785
-3.19968593589908
-1.35537705796778
-3.59715119341244
-5.38980008172527
-5.87327391070373
-2.56931735223144
-3.30582022818415
-5.02075106437401
-7.66034469894493
-3.10980854293863
-6.40787918388035
-3.99880105814112
-4.44952152232281
-2.17399594888825
-6.80110759406076
-5.67983471190572
-2.57026236221071
-5.13458455076462
-3.99168490593495
-3.21665348424843
-1.69028769153111
-5.16430116249086
-5.80397913416878
-5.75738850188451
-9.96528908478311
-6.77408042188449
-9.71313714588005
-3.55366211076773
-6.30012049837181
-3.54515800064451
-7.3416520690776
-0.970048654234501
-4.12758336309463
-6.0891699991331
-7.75352031482266
-5.94911351085256
-2.30908105571039
-5.05335684994162
-7.94743553950032
-8.27610899725818
-3.0489964069246
2.1676029950719
-3.55993842538951
-0.777288373768851
-2.52659439486421
-5.26932161581486
-7.20500608117068
-7.06178486007829
-4.15230392704904
-4.65350269213263
-0.861145503201361
-3.37398469074051
-7.99801033859645
-5.7405982917552
-3.59924705518204
-4.47268153510754
-3.1676190424545
-2.91299015702956
-2.87735813272683
-3.86922535277393
-4.96699084513533
-3.91565917501849
-2.62161198934168
-5.96205831096586
-5.21968062666265
-5.84417595769739
-9.15644290508969
-3.53327522000311
-3.60424155764201
-5.57138007433424
-7.45230697458008
-2.75179124084436
-6.35397333984684
-6.97479769276743
-6.23166258222487
-3.01106635517412
-7.30905016182476
-7.8145735063498
-7.3416520690776
-7.18831757138607
-3.08901556997372
-3.21076151305858
-5.59364475428847
-5.81548065620922
-7.71009143286696
-11.8603935155454
-6.95151253176667
-2.92835709248356
-3.89790339592987
-5.92739604862372
-4.96986419219039
-3.48592965301096
-5.99673924633782
-7.22915500382159
-2.69019955937272
-5.6327204931547
-6.13824946471841
-5.86544993931268
-4.03521138983185
-5.71810495478147
-4.5939939753907
-2.78818642116635
-5.16285226565758
-5.41756772851634
-6.63461990383482
-2.91217410968504
-5.42107130851242
-6.03069107566847
-2.836967947171
-5.79839882805753
-4.70821303507175
-5.27793693827854
-5.09234142912026
-5.12225393565334
-5.94817944958874
-4.9501530465449
-2.93930026692058
-5.05096667640589
-4.70659748803854
-4.08004115796908
-4.2775519910833
-4.2775519910833
-5.00400175601046
-2.56511824450655
-2.78295575958054
-7.09937174930013
-3.63628012494046
-7.08074133439476
-2.82290707986889
-4.71339024184077
-6.18200608818042
-6.71885677483091
-5.63789411841238
-6.40570575095441
-5.79564776352818
-8.63885634300801
-3.1808303973503
-6.02997884723507
-6.75961221636321
-5.32768035712584
-7.51746728434755
-13.5795615095418
-4.54200202596969
-1.6915078832556
-5.8888038547378
-7.77842798609223
-4.44283429603014
-4.13822893160234
-6.14791459484485
-4.50756459131
-4.94845254280605
-4.78316679689097
-2.54476640244819
-1.37707071078682
-2.6947004353043
-4.01976465194519
-4.65170339167637
-4.2775519910833
-4.2775519910833
-4.8502741856836
-6.16514687754117
-3.79102549523953
-4.99444456194164
-5.25584689603022
-4.98448865953946
-4.46455707394922
-6.79395536706486
-2.76161916888288
-3.7747909528304
-4.70838294103417
-5.58598529832736
-4.15514325366243
-5.2839764311116
-4.94867538090503
-6.16514687754117
-5.07542341487863
-6.23390886535302
-8.42078219856879
-9.25681562165752
-4.73468387687807
-5.75491055778879
-4.99444456194164
-10.07525612651
-8.56918370816895
-2.12522672062607
-3.08679392665341
-1.8767259464484
-1.7876595009338
-6.96338601341583
-1.47491851976045
-3.25438192574051
-4.94309185114511
-5.90332071045487
-2.65475404778705
-6.69103421387322
-4.29574527331321
-3.6340822894478
-3.95071404130005
-10.3250772595313
-6.33184405526647
-11.1781535696657
-2.51165835355239
-5.57899916460457
-9.65908999376044
-6.42147754112161
-8.66341921128835
0.282882222187627
-5.73517993886034
0.282882222187627
-4.93699884090303
-3.29729435131274
-1.41746873583713
-6.221886500364
-4.57165857307562
-5.36134031317308
-6.52436349816743
-4.02790014981614
-3.75568982270896
-5.61436882890864
-6.06857634967975
-5.33524240614943
-6.84074811375558
-6.15609321972759
-3.91155878840942
-7.58274976970392
-8.40374633451059
-5.00838249891499
-0.837787696985924
-3.7409336533523
-7.11779853016005
-1.12643986740597
-6.91550875279565
-10.4185024383374
-8.64598280279401
-2.71566974059996
-2.99683293713512
-6.01943250540416
-7.54488510596113
-0.686396682550118
-2.34099862566298
-4.54780388699723
-5.71985500404831
-5.63360951421683
-2.97078926357846
-6.53992419817169
-5.01787209655143
-3.60055594060196
-9.21885407363004
-8.7563607624577
-10.9606245589967
-9.44580412620747
-8.85095249129605
-8.60253464230282
-7.91765077051716
-4.70024065131618
-4.56568944970451
-4.54099513881531
-6.54005232371257
-6.62659266574832
-6.61274097964478
-4.97135887433356
-4.24583878490638
-8.54759272603949
-8.74531910619402
-7.08061147710983
-7.99224947200471
-7.32179677734764
-5.04227281946073
-1.62612051765428
-6.19627143066608
-4.09795195177017
-3.59582192175642
-3.94956011140591
-3.44412106415171
-3.31167243514052
-5.22947488211576
-6.14318279609757
-4.63221649897945
-3.77954830022513
-5.56774989549641
-7.51026635358686
-4.20871720991472
1.41143768541728
-6.05136372495279
-7.49347855208695
-5.66416899436507
-1.76548819745114
-1.96318479542933
-3.87849086721738
-0.992952023530673
-3.80254775967603
-9.59424153765723
-4.03671828468314
-4.94816327799984
-11.9040117755431
-4.30104793532419
-3.85702769094882
-2.56912600685103
-4.3966645071471
-4.44812614347779
-5.54482202449593
-5.91662857363682
-6.52773200693974
-8.79305440836079
-4.30396778282348
-6.04055205009816
-3.91456222129548
-0.316150245295941
-8.28622434396603
-7.50050287846744
-6.18844728229138
-3.46171747462235
-4.95717343065932
-2.44905675643792
-6.42659199167232
-7.49892817863845
-5.61224770806064
-4.91015726440104
-5.50494432827002
-7.36379526559587
-5.62013383250748
-0.858303844391623
-5.21968062666265
-5.84417595769739
-9.15644290508969
-3.17808144009658
-8.83479796691001
-6.05201596415426
-4.31345562001722
-3.5913129171238
-5.58298135804659
0.272712849116921
-1.41381102982457
-4.80712518553058
0.174905904886637
-3.37518075641608
-1.26905480706388
-6.97204684692567
-5.89083130173395
-4.38764812211453
-3.64387283655632
-7.46237811667101
-9.63954535660983
-7.67682569553752
-4.09341774450639
-2.15855439967218
-5.21968062666265
-5.50494432827002
-5.76029886634727
-9.15644290508969
-10.2545937136612
-3.65258429645289
-8.12932364570604
-8.04887679494259
-4.70424493291398
-3.60277939206145
-11.5487021914888
-6.38880445152938
-4.13075524461185
-5.7926025016228
-3.69657664232223
-5.26736217476262
-2.50490176430569
-4.54934349851817
-5.44990917941012
-3.89693846228809
-8.13822162843903
-7.51039595548396
-4.97972358069936
-4.54501581586742
-2.71370133152102
-3.39360592620446
-6.82717479816753
-3.80621537102218
-6.4541778502719
-1.68787874128204
-2.63604420830579
-4.27509721139376
-10.2063565885109
-3.4180855741855
-8.04263365434738
-5.89461553866202
-4.5117518659053
-5.8117679458891
-5.16885399162122
-5.88611264801018
-8.10133717865374
-6.75169005520263
-5.60993807576448
-10.6802961924374
-4.47149546457088
-6.60949662843207
-3.48839215552123
-5.60290225617332
-4.88385784482679
-9.82559344957072
-8.0267806783468
-6.54452281331413
-2.80548836246388
-6.48811506958781
-5.79604657139775
-4.952248911841
-2.33287340019114
-1.65092731434744
-0.741932640695879
-2.57297622731369
-2.58964735606749
-4.13220052164006
-3.03990316625709
-4.90100006954746
-2.83207282760086
-8.49574396640609
-4.53668751532851
-4.76451293851355
-6.41141813152852
-6.83311171901769
-8.35768045492023
-4.99529625481993
-4.51083157680976
-4.99497057544381
-5.14199938707363
-6.27500764358475
-5.53870913779753
-4.35443858460558
-4.22494494084107
-5.84417595769739
-5.50494432827002
-5.76029886634727
-9.15644290508969
-4.27652097863353
-5.12801352069908
-7.27120535973032
-5.96814199500674
-5.98691037926689
-3.73618996245669
-4.40180451927909
-4.37621507240097
-4.34250102320826
-6.44832066887661
-3.48960042588755
-6.02943468614095
0.24342269182115
-2.21025259921864
-4.67540904381316
-3.32945674620674
-1.56017396954525
-7.22120716630664
-6.35515041419622
-8.81062767267637
-6.80101128377863
-4.23846951528729
-5.8256516230724
-7.0887780062203
-5.80070718250704
-4.08295623623497
-5.86100091255883
-6.89662815164067
-6.6682348047744
-5.1667303026357
-7.04909412365001
-7.19081994110472
-3.00022268830961
-6.7872674006987
-5.76643959509189
-5.76880207887377
-6.53382922047639
-5.11414761436405
-2.51278190575982
-8.08147007380774
-7.9558349771827
-3.04995408479318
-7.01363974547271
-10.5827400243502
1.91746046834836
-5.03721458528084
-1.73843702843314
-2.76186053250591
-6.5764552187702
-7.41469190497424
-8.87972339360761
-3.06224962481109
-0.309475804531152
-4.1995445297591
-1.68530411150627
-4.41169092874396
-5.14851618791943
-5.34458173616134
-4.10259359401025
-5.00264059705407
-4.02909029754857
-5.44721820162624
-6.56077924569736
-3.55712856150919
-5.5308101009171
-6.1072818452435
-5.34490144644647
-9.39841522017189
-5.46276932541458
-4.45373000200614
-2.62504088682682
-3.24275217758005
-4.65788629261983
-5.05602897668048
-5.47334032263029
-6.75107260778535
-3.4700243182561
-6.61840736730568
-5.71683156548977
-3.6206465742234
-0.637010234893307
-5.67220786019038
-9.6818295617051
-5.77783460584139
-7.99703560991345
-3.67930578298599
-4.90879383348838
-5.23705365114242
-6.75107663357897
-3.0881490010697
-3.62768363499584
-2.67968261260954
-4.28414003974212
-6.37242951273013
-2.95716936850392
-4.52854366137311
-6.89355319781647
-2.99746243569683
-3.8693630728398
-5.16946554028526
-0.557342040597362
-5.86650018040715
-8.59773772542844
-3.03363481354016
-5.41605814302198
-8.98067435204622
-0.911103283761768
-3.88540043961762
-4.79469680544801
-9.60632725683989
-2.77959595600025
-9.92187144151645
-6.14947570205788
-3.09812608614497
-7.28664329817825
-3.9276413454147
-5.46426133376141
-6.8207679464335
-4.65167892579812
-3.00548615418655
-1.46114103707829
-4.61321925048992
-4.80725622663024
-2.38026959734333
-3.32881329067226
-3.15794578732292
-4.77452383780955
-6.50871293739493
-2.21190473362104
-5.43443398232257
-4.54682581301772
-6.32446049041282
-5.89131495997723
-5.13968465590923
-5.37264048423206
-3.58531029429211
-6.93286064610786
-4.07397735693774
-5.67463904120299
-4.6715688343828
-2.6432937457092
-7.23483689853552
-4.74780280191986
-3.36811848010171
-6.83178693704992
-1.16017407931248
-4.36054029399202
-5.8450233687074
-6.37162136167518
-4.12674244313293
-3.30453633340177
-1.0802033352992
-6.98431253439787
-6.27422507510575
-3.93314592466196
-7.48868389329901
-6.39648830107014
-1.97314663440062
0.0352541365849984
-3.30698986297962
-5.94067728535932
-3.64667836016804
-6.04316809701546
-2.74153882146254
-3.83071569831423
-6.80010766074806
-1.84943822423103
-5.23629592822532
-8.84654542383518
-8.68993996105611
-3.20669567958885
-4.43602962672771
-4.61708646135455
-4.74083924110199
-4.50248454161985
-7.28823972959334
-5.94067551940477
-6.12178728288641
-6.95907654618802
-4.61609763034671
-7.88122325162374
0.0692360053579457
1.41104866048365
-4.30438738107699
-2.80545579616543
-7.11440874582716
-8.65668959574455
-1.68223706184353
-5.95670536915008
-4.25491888651436
-5.81585434796266
-6.4152172065033
-5.74863013078409
-9.18387063979148
-5.4035242379043
-3.6163043300406
-8.97702332259387
-8.72077470782776
-4.82635840944522
-5.59978899772823
-6.11772007239372
-5.0285613953286
-5.97545484566494
-2.99615261460561
-7.90781729281599
-3.08596966301157
-0.247696087816576
-5.09066809828805
-4.27588743196337
-4.59952845308387
-5.40242781597904
0.8735524126975
-4.67244875887759
-2.68971149360386
-1.69947461621074
-6.3533259381438
-5.74503155710638
2.44805598298581
-4.05321592314071
-4.53982795224932
-7.10591233547258
-3.29261693423195
-3.68314843824301
-1.00865511248433
-4.38328954227358
-0.100381451576775
2.73620003487132
-4.45819575614226
-4.36454709491099
0.313819631188837
-10.2165387941857
-4.46275860899748
-9.24430690261389
-2.60007482315537
-6.02149142525464
-6.1270191666964
-5.46757657421371
-2.55195450066692
-3.18210934659317
-3.25429565694126
-3.34894467898013
-1.87374540173308
-3.99606619965603
-7.91830907053855
-6.68960740276584
-6.56974610042281
-8.60874970665172
-8.2619561411916
-5.76841921022837
-6.09823986816753
-8.1237137687602
-4.54400779129396
-3.75460620822023
-4.7262382045678
-5.27042409442453
-6.49440019378785
-4.32478096647552
-7.16374118518357
-2.65811277648305
-3.76460326632169
-4.76590662122028
-6.27295072552754
-4.67086277294944
-5.01891543104606
-5.17521015821072
-2.80477071812191
-4.842932268152
-6.8895489522248
-2.20395156924477
-1.90238642028917
-4.20031791267642
-7.10974475715135
-5.22782395528956
-2.51613592050404
-8.92086242471589
-2.76454977378307
-7.19455124255349
-6.48746257804049
-3.74081535154008
-4.34423320143925
-5.68161531838341
-6.10426889818189
-7.9173167140205
-6.97123939933677
-3.82615407035924
-0.665793590734373
-0.354083716247982
-4.92393121238701
-4.89100290244681
-2.76167560799087
-5.16450725728745
-5.43010090538398
-10.4492360725691
-2.8458738739342
-5.01870295072207
-5.29626195280059
-11.1397543864858
-2.08001988326959
-6.37816435129968
-9.85362012725515
-7.80818277969181
-8.26060632972812
-8.24229252535624
-1.9521686692955
-6.19145210564743
-7.25398235193726
-9.12068278810767
-3.34259067675737
-4.53413572425324
-5.66294935707651
-1.69319587364671
-4.95440368173139
0.381633737199934
-0.591555397680769
-1.55993837169185
-0.0322395780707853
-1.66475533579742
-2.07930433943911
-1.64373325985684
-1.7937769426597
-4.91947075774732
-6.87426798839131
-2.53930909743875
-6.30191481871793
-4.64883163958108
-3.38763608112267
-4.16345666146095
-3.20815097406977
-6.11714330506277
-3.37077322521098
-5.4647909055831
-4.17137686150213
-3.70797356345309
-4.17291994041695
-4.21415354298356
-1.58470497834681
-8.84890449905856
-4.96961402724793
-5.29483920691695
-3.09832278868751
-2.3896990338683
-3.57900534952533
-5.66551990723039
-8.38076975419028
-7.23017420344341
-7.66375675835998
-6.91860612629967
-3.23915397828857
-1.59304789620144
-3.45609926632575
-4.06948797640338
-2.44405646251103
-6.26739954622058
-2.28071904617947
-3.43760970074514
-0.781160305537711
-8.0609642961072
-8.27279313066825
-7.67148531176611
-4.69957139240809
-5.28711716190124
-4.5936867096352
-4.61924197123036
-4.11640875097579
-6.55691319922262
-11.2716396956685
-1.93765538633362
-2.58199217675655
-9.67381431060842
-10.2841785965944
-4.02852035191097
-4.92948504750304
-5.12012888436257
-4.2392433580764
-0.541359860168879
-4.50437088561543
-5.00654234876506
-4.57587354719966
-5.11090371524074
-6.98482700287877
-2.64058986615252
-0.134137948094689
-5.52117421356833
-4.74934401453774
-4.17343466087533
-3.36620478982568
-4.09585052828214
-6.54740746233996
-3.72592530685578
-5.52816144732931
-5.36799592638451
-5.36158326945196
-4.67155344273658
-6.69881285435658
-5.52429354262165
-2.50934903539407
-6.12257202228277
-5.01771340594873
-3.07130880279584
-3.54096058429754
-8.52402205569184
-10.1631908767068
-1.75366831781237
-6.58316291280423
-6.79507874081157
-6.63474206801626
-4.85933557857056
-6.84541555295582
-10.5898961945495
-3.95587255379098
-11.8417039878736
-4.69880145307827
-8.72473181200827
-6.91657017117471
-7.4853973583391
-9.04468718960536
-9.12178997922123
-7.41124391724288
-4.82835191952799
-1.60911487848972
-2.49229976391317
-2.28513225073831
-3.42806455003328
-6.70368454429769
-1.2130094149852
-1.53918390955872
0.508104497163275
-8.66332392836907
-6.06564544887344
-2.27255544605049
-2.13735790966936
-3.15741044168382
-4.05364526927118
-4.93003029704805
-2.96359266109147
-2.27413104437187
-3.01717931889702
-4.81412248068241
-1.93195741482627
-1.84936826231818
-3.13264075556596
-3.8942340268629
-6.41442517022335
-2.38102644900766
-4.217473576476
-4.51852443234498
-3.04322889368098
-5.25754783787
-0.209298376651994
-0.903179645691874
-4.93196138926498
-2.21671225365206
-5.61770009362884
-1.26694646279534
-7.68318254662915
-5.17979212012041
-8.01499176659529
-9.30433097879077
-7.75999460225462
-3.42052329628499
-4.98943131735772
-7.74732392172253
-3.24030635323949
-5.29186401742031
-3.95071160214135
-4.45927810328296
-4.51710570259578
-6.96089283144551
-4.12545121692032
-4.37372240260334
-6.36780368203141
-4.27844798043837
-2.11716651815294
-1.51612869919436
0.589231801105691
-6.17391791050671
-5.81066832438326
-2.65002046816178
-5.70499302139781
-6.59981937706989
-3.13478061013862
-7.87919841362963
-4.85157243327216
-6.1807171017584
-0.767430477600276
-1.45703252325213
-1.65498777608354
-0.894317394818485
-1.64125177831119
-4.31868405388921
-4.8122189914885
-8.66339528180221
-4.30570612264416
-10.666726820818
-8.61157932737068
-3.35299146585962
-7.54024113959942
-7.95692543197354
-5.04788414405877
-3.76396305867105
-8.29697519918526
-8.11251092466967
-2.62077686471086
-2.06164195683757
-6.97332566792531
-3.20668069049593
-6.1640033139315
-7.21055462745624
-3.03904560197988
-5.61843853176977
-5.62014159063507
-1.73008109278318
-3.28066411914478
-2.59231199629409
-0.661901256656423
-3.12420728591748
-1.25070191810201
-8.74483650682792
-3.80299316639958
-8.24219561674484
-5.3459189772126
-4.31808729856774
-3.46123453867101
-6.55540850063841
-3.78421176491624
-6.84663789775611
-5.79391400792779
-6.85816052462268
-1.86642234462699
-1.95292515284285
-5.64115457330823
-3.27760048083927
-0.650524678166126
-5.14613051243724
-4.28618054939416
-1.75098499516389
-8.86010779928205
-5.88006977535079
-10.6267575757784
-6.47003903341042
-6.47710248414256
-6.30473092860688
-1.73910948800236
-4.02065397089862
-2.10358179439084
-3.50165678410281
-4.74126254478352
-9.33391320576046
-6.16148217250653
-6.6779029861949
-4.68783665663088
-5.30832941678093
-4.61096546068286
-5.00937605333782
-2.396543569145
-7.29640829422876
-5.13383852448031
-5.86778528183424
-2.33011475268571
-3.70633871686853
-5.09308215613521
-8.1788303302236
-3.35227392735474
-5.82173752393521
-5.86733561871151
-4.68672337069539
-6.65671978154446
-3.90738115020631
-5.43876188509508
-8.95345997828853
-5.69913795654278
-5.04079324532104
-4.65740887187811
-6.40441264628316
-6.78140962380529
-3.94675633172572
-7.14504482032427
-2.70937303358158
-1.22571520347793
-5.8310748837755
-8.85444765248886
-5.60323304583103
0.620101450052512
-4.5135644986178
-8.73946393361193
-4.17447153851901
-3.99261870232359
-9.13715272547296
-4.31808619212413
-5.71169418267887
-2.16463230531877
1.0352733735505
-4.58726953198851
-7.48723424966153
-6.96261702169419
-2.55274001110952
-1.26851729211545
-2.64511171596729
-4.20980794026319
-7.03157029201821
-3.92890909262177
-5.92058600341903
-6.48202668833338
-8.37550474599828
-6.98329843818096
-4.6946255458704
-2.49169302491505
-3.45766063163058
-2.55668105040801
-8.01836718013155
-9.78948160820883
-5.02576408430906
-1.20471513195778
-3.82451965524852
-6.3149797394577
-5.41118715784401
-2.16895919517463
-0.704140178620863
-6.73845864788737
-8.91024237794799
-0.88763249676982
-4.83992202645383
-8.04052002012024
-5.09471214572731
-4.28228948487235
-1.42587322099713
-7.40478231780657
-6.09301503739753
-3.22335905199694
-9.15470089699984
-4.15121716437142
-8.72070597283554
-4.99568494708944
-8.67189042754006
-5.18558807809581
-4.80943353597144
-4.16033552024474
-1.78809653653147
-6.92502164107896
-6.01616457231235
-5.1784879315556
-6.46856809660513
-5.12047456323727
-4.29602435220888
-6.73672523542593
-3.38272753518996
-4.81321413565087
-2.18571111187003
-8.08034463952006
-3.92012049475908
-3.11056089103433
-5.82865230373356
-4.14269238446441
-3.68298714799834
-9.54633344065218
-9.28378951587222
-3.49925862716537
-5.41394697656045
-9.8869996031256
-11.1427410019199
-12.4523759196152
-11.0204064041284
-7.53225776093225
-3.17739202211012
-1.58173519201963
-2.84151532039925
-5.58275699219939
-6.54956315295751
-4.94443978315641
-5.5588968501332
-7.10274726053369
-4.77222705939889
-5.65307761326905
-4.81355631214632
0.197111632419584
-4.14730016443043
-6.42749307550562
-6.95253849392536
-9.8573977953749
-3.92618094513321
0.24015159016845
-3.00927855363199
0.636277559908114
3.57375001304818
-5.56566847592541
-6.62919450604261
-7.72715899327217
-6.12106110994939
-9.69572231197236
-6.06866058138871
-6.86636411590532
-7.58407819693128
-5.85097501589967
-10.5062739137088
-4.98308049912395
-4.56865573016726
-6.74329461635106
-4.32811600083538
-5.22587007032688
-1.03045641930237
-5.92848357528629
-11.7628430520324
-5.84454224207889
-1.10058365354578
-1.82562483635663
-2.2339096076587
-1.94250637121111
-3.84252022723914
-4.12669744534821
-3.8759784726234
-4.29478386240344
-2.53786839530947
-2.30868351917247
-1.2353060884421
-2.7492967121344
-4.46623132595685
-1.48431949544263
-2.59812299533259
-2.29417180288484
-0.525134439438786
-3.92702645193097
-5.16481175437646
-2.9582293781713
-0.847448354391247
0.784348793200341
-4.46515058654056
-4.62777439537202
-5.28381818868902
-5.9619707100687
-3.75428011523574
-7.69793267177259
-8.74218148111885
-5.69974640212707
-4.53902055122905
-7.37026700069461
-6.15290315818153
-6.58939221650484
-8.33533981653406
-9.64251530862462
0.552768497562804
-10.1932658612719
-5.35418683716508
-5.94035057224754
-5.03160113551133
-6.46401493805805
-5.08205984678101
-4.02970702505005
-7.93361790466202
-3.74867973133156
-5.59159969585632
-4.57870181806861
-5.38247407255423
-3.85354972638781
-5.16529900652834
-5.1343719696304
-5.71683156548977
-9.23337366728191
-4.15790625111056
-2.69964199753417
-5.51795376602732
-5.05137988027454
-1.52794564161242
-5.71313608491487
-3.81358103449719
-8.55735446661302
-7.03306975305109
-7.99765065050439
-6.66257057115896
-6.55041377521432
-9.25564114435474
-3.74740290903754
-7.56460063608296
-8.75890811893997
-6.2981855530659
-3.96417931972019
-5.32168376593847
-5.50174695780136
-4.38562835244769
-4.68089451788126
-2.40876136034511
-2.17019366164076
-7.4401055033699
-2.89538327423022
-4.55786386411155
-5.44864244807695
-2.76683787672086
-5.96537272271633
-3.16650551463303
-6.22049780267158
-6.23774426738141
-9.64574304016848
-4.3996925364452
-3.40838568575928
-2.86293802433696
-3.5266070598579
-7.48302741040997
-2.57454516702928
-6.06498017836522
-4.48312094753908
-5.57295137471881
-4.1029997561699
-9.28246779881751
-2.53118821803839
-3.71295640518463
-1.28197555393278
-3.81844162030209
-2.7859905483807
-3.53551922552371
-3.33166507888487
-6.03573692920377
-2.82746544501301
-1.71593599263099
-4.39727995522132
-6.12009213320341
-6.4545595016365
-0.495859359146705
-2.59471900263046
-2.63559762159687
-6.37701856301421
-2.8791104670757
-4.99515878633553
-2.63430747763457
-6.01058640068887
-7.99380910263792
-6.77236025363534
-5.39373592447141
-5.43885164215096
-5.31630250190838
-6.09265460714545
-5.63691311096487
-4.33794793848161
-3.3963658946136
-5.36759799332105
-5.76174371248566
-3.99810063277359
-4.06529095052189
-2.59940869919518
-3.02760248727199
-3.90739255092391
-2.18354068343711
-5.3814830868885
-6.06712957941985
-6.26931007372779
-3.43276904058021
-2.85733808391243
-4.06503825707455
-4.74286573310111
-5.72932463863914
-8.57606315196837
-6.33765070606746
-5.95894170391806
0.0911162076983044
-3.88613256091517
-3.79471425542287
-7.88268833216285
-4.66320365223138
-10.0677840651187
-8.30640912079264
-6.7609564923376
-9.28371346057357
-5.3544661094937
-1.27062488953256
-1.89908639808006
-2.39165340451056
-5.42595410121752
-1.12783895359585
-3.89733597687895
-1.97038035765572
-5.07662533564545
-3.15099666490072
-4.59333529733213
-3.62965069708115
-4.46412410721401
-5.56504864461912
-4.07496888658858
-4.54066480595728
-2.23178407248869
-7.69641856364615
-8.14680115954278
-8.32524943957528
-4.54840521261896
-3.86558997137115
-7.10411032785374
-5.6998209484696
0.373656099651212
-5.14955924892492
-4.80394386933103
-3.16151689866724
-3.93578832583386
-3.08942031299038
-5.58936941851004
-3.94317724804076
-4.43649170725583
-6.34767697148326
-2.73800076906948
-0.415096935277962
-6.81809819504447
-8.6048384520737
-5.72899402847331
-5.23408224867706
-6.54120100510539
-4.19252442073135
-5.37378554227484
-1.7907334751518
-5.94575735871936
-6.15709384466526
-1.39504399687186
-7.02577512596832
-3.54314822896195
-4.29044872960499
-4.67967046549642
-3.90315139828382
-3.96156955904252
-5.84464935468342
-6.13616326239127
-1.46618435033506
-6.92338290149963
-6.31351540008921
-3.48127357906239
2.04064595840537
-3.91280472964021
-4.31126953524693
-3.59824990190115
-4.28118094886571
-1.94537452661537
-1.45429246813074
-2.92816523146942
-5.69188355315197
-9.01894132747103
-4.15721719075282
-1.77887071022906
-4.2570988832243
-6.10951675986235
-6.43196353062503
-6.319870275212
-2.23142784343295
-4.408074949805
-4.36594268912716
-7.14050580189069
-5.37309635967795
-2.42053005293379
-4.30084745189927
-8.35247842087385
-4.45507369007032
-5.17878468184756
-6.0069563943508
-10.3566408780135
-9.18720801018901
-4.40890045116197
-6.204311318226
-4.12659300859781
-3.69814245989182
-7.11895490304951
-4.81844785042013
-1.53688594233383
-3.53501460938948
-5.1038154022687
-4.05315783917809
-4.0120230248565
-4.12687957891001
-4.30599208311337
-4.32134404674705
-4.56282717258405
-4.54934811100832
-7.24510086335926
-4.30954677039467
-8.61172399202379
-5.41392522810372
-3.58874460593288
-5.85160494969167
-10.07990838539
-4.20516744021589
-4.78156674819867
-2.36188079668603
-2.4776506839165
-5.15002891827762
-5.32139129550056
-7.02903766291643
-6.3750044969846
-1.97494897006594
-4.78961648039712
-3.77614343105196
-5.21704285163796
-6.10854518089251
-5.20683689341774
-1.25905262395079
-4.90969843873067
-4.60017628079769
-6.23731355612661
-4.62223069329427
-4.93207511030845
-5.89368110100129
-5.21013145364215
-8.43755753246899
-7.25024066198183
-6.02206167822722
-3.05614568804184
-9.82693189010536
-10.3717734963393
-9.94312732389048
-7.99380701088459
-3.25015374163061
-5.55633166323257
-3.94414249429324
-5.89302198033236
-10.7442341500121
-11.5812440624374
-4.71187662191575
-7.10888858928008
-6.54279998360704
-2.61631646410906
-3.3229775878643
-3.94140382281512
-3.42817614641337
-2.59137197637397
-6.02294587806853
-5.01874601857636
-6.44167667961497
-2.61694668567311
-2.00768706551664
-2.45506497122163
-5.35964937502263
-4.39524670619439
-4.36981130582287
-5.09673440872719
-6.74507106192599
-3.01177542543205
-3.7683789043225
-2.86509603111616
-6.11636217845761
-2.56309791380304
-7.74671376822392
-1.87719497762888
-3.57427275139931
-2.82774508069725
-5.03768179479651
-2.68285517147871
-6.70459494237272
-4.46779882589629
-3.35642548422444
-2.46512845443372
-5.75555991675272
-0.869744803041515
-2.21522310030464
-7.45086040541808
-4.83490926998379
-4.42620027508273
-6.64354786345352
-4.7121651972151
-9.81545030758975
-6.07920191587996
-4.59179061986344
-3.80699339881443
-5.49797779727942
-5.02972688493188
-1.05855780545228
-2.04441585031003
-1.75179480775762
-6.79869936950006
-1.9806470617603
-3.66992651034073
-10.8815968997131
-4.14534724694222
-3.66979446829056
-4.53147410055143
-3.39452683712673
-6.30396696298921
-4.89727220486927
-5.12237245429285
-1.57116756434957
-2.57970484191006
-10.5380357463161
-3.34884879518439
-4.0408759661718
-7.00945468240805
-3.42228667414952
-5.62491149053058
-2.15540175784891
3.25248528124792
-3.57640389332493
-6.12124010933248
-6.37449530336253
-6.20368432246165
2.18507805568444
-4.80847302953425
-12.4168070033141
-6.27986730525886
-5.78830644085399
-5.5723723435362
-11.0934664150334
-6.35637033414988
-4.69779190268901
-5.40695969849672
-5.32848488845544
-3.4428484962774
-2.65087240624978
-3.33683878813202
-2.58111369372962
-2.4121896406186
-1.63398801971352
-1.3757593118876
-6.19123760593309
-5.30672807360995
-0.426252590374927
-5.65233068713299
-5.19253624587472
-6.21943181760047
-0.230573793935708
-9.70789612534276
-11.668125141418
-9.14929019893763
-5.20414304299082
-8.88261343873273
-3.2323559438989
-6.62374219609497
-6.41713140763602
-7.16423734551778
-4.48709466323731
-8.09112454853963
-9.60288144835362
-7.30828604487826
-6.36322116778692
-5.61832089598661
-3.19030308535873
-4.16388307921589
-4.52964681071584
-10.00641138817
-4.4438731149213
-2.74932215430353
-11.6046117304758
-2.40223602061037
-4.31866184605775
-5.13163180585095
-6.15104484287416
-6.60938575037337
-2.62830067202352
-7.5270858433196
-5.88817489927886
-8.77434446884835
-11.2614360898509
-2.84604244035819
-5.29699462141368
-4.08652134168596
-4.86900962421695
-4.67822378508989
-3.61917724013721
-4.69558669332356
-4.43005276885325
-2.83676211327407
-10.2545937136612
-4.3053227945102
0.879149080642389
-4.04357655654297
-2.91913479000893
-3.76428152076318
-4.63702199425156
-6.5877184276483
-3.62378979544785
-2.05001244574683
-0.778742707880182
-0.185612033003732
-5.13166231239649
-6.4318133065698
-9.24277628696203
-12.2346736702948
-7.77806758993448
-5.00613601957595
-4.27060366172996
-9.21935760559002
-8.46738507714949
-0.551523876626436
-1.80977682505775
-5.84155791900405
-2.5480311140429
-2.83016556004931
-3.20733729656663
-6.99855654416832
-6.2041631054206
-3.5012380603182
-5.71915600323986
-7.47191009463119
-1.08394114276691
-6.06494872648995
-11.5487021914888
-6.38880445152938
-4.13075524461185
-5.7926025016228
-3.69657664232223
-5.26736217476262
-3.84807780018289
2.00858165142305
-5.12105556216097
-4.60934648607984
-4.62429455781631
-2.78669238394892
-3.17886080668808
-1.50164052341845
-4.82618151257139
-5.97495289820309
-6.17628850803489
-3.46625282971953
-6.06402022596352
-6.27914604974753
-7.29734254795511
-5.10531854187426
-5.99160229170649
-2.18547932093456
-3.73766472006449
-9.40076193760668
-6.26872597796664
-5.08304707707018
-2.61733026475618
-6.59931435214962
-5.49454137279923
-7.71294501945467
-6.41286696180201
-8.14453243306393
-5.02242739318934
-5.22784567652722
-4.79089320095666
-7.5689331911889
-4.62177487254448
-5.88110824008921
-0.649676314036822
-4.658429702121
-3.52402510426157
-6.2072070378071
-6.7081680438627
-6.48748017311933
-5.83212371547829
-6.24201406923341
-6.58603469376486
-4.48433768617486
-6.36161293404239
-7.59630518058228
-2.93404699729747
-1.56190556427663
-5.33403456582848
-6.35874949236092
-6.32240755133286
-5.13186299592694
-2.87427967810924
-6.04787407634329
-3.08672466042713
-6.43344380483862
-5.07226920035971
-6.6147503293882
-6.01176546936077
-5.3156188882799
-5.56206865268596
-6.54976095182388
-4.34233834465275
-4.30624026578612
-3.35558656127263
-5.41979787556616
-6.35232559298094
-7.19646143544716
-3.18603503648993
-7.01121623895635
-5.17310811408422
-6.4162505514438
-7.70763473718172
-1.68390297074407
-6.95590180420543
-6.95590180420543
-5.40122899845386
-9.88857570461067
-3.00417928365039
-6.95945689055217
-1.13961522471833
-6.25233642195807
-6.42211202984861
-4.87523160048947
-1.90631561988107
-4.05395838429306
-3.05845307350595
-7.14269041272186
-3.69730281259129
-6.14445996151441
-4.36885385651267
-6.02322020089579
-5.50168534752297
-7.33771383717677
-8.22512104501737
-7.0718567974598
-6.24762488028815
-6.22666837357393
-4.1095205105188
-7.77159595408744
-3.03180266176294
-3.87330853788745
-5.45297870604566
-4.54543655894745
-4.53845831321134
-1.30751333047446
-6.0105806727538
-4.19102113746744
-6.11782189520485
-9.58480466769937
-5.63567894612327
-5.97167937595836
-6.87918079819028
-3.99106673837416
-5.76503580241738
-2.8549216048874
-3.01451783771447
-5.95273583839919
-2.49525493927875
-5.22949697433427
-4.9155026730517
-3.44226658148132
-1.82620157716047
-2.45936009921098
-3.91537833287191
-5.69487796513031
-3.84613917697066
-5.91166968193581
-6.18118734701202
-6.14130667910167
-6.3912351447935
-5.00566837707148
-4.59616048597414
-8.90785269532799
-5.84645180990767
-6.6856417512253
-4.07831601755253
-8.14789008521951
-3.18108969011601
-0.348671889024355
-4.79415418729231
-3.71915631421758
-5.91337473930549
-7.28640640719858
-6.03307089191764
-5.45300303675894
-5.85417590722449
-5.13010447079965
-7.66083758253527
-5.1687958456456
-2.61517071998567
-9.05758446497102
-7.061344767012
-5.41303428379018
-6.25785177968308
-3.79589010807814
-4.20266809903965
-4.24557593879364
-3.65627802243461
-6.04766726281107
-8.75376207193708
-9.7919385961832
-10.955939704754
-6.5193895238701
-3.19243223143453
-2.71138804485308
-6.4262650888834
-4.28364179425313
-5.19929706267258
-5.67603486009402
-6.50179256839954
-4.60935140861185
-6.49229513477647
-4.76982474203587
-4.38054935692866
-3.6670421247051
-5.42153399679349
-11.4430038489673
-1.90620048646315
-1.84644614837941
-3.24328075416883
-0.568415806469952
-5.7093264131456
-3.94532326357469
-5.33630968754878
-3.3780480286307
-4.44544890613497
-4.66166360908484
-5.8174343041863
-4.05845634719808
-4.93264003423181
-5.62729748464878
-7.25367602146532
-8.38653079675065
-5.43975224248431
-4.93065328953203
-7.4940346851141
-8.08267341334068
-8.65385940437846
-4.10892372213105
-6.3376943653075
-4.60922816517916
-6.54399508104431
-7.16921388149465
-5.6018546824201
-7.30083527213457
-8.17249594241737
-4.21624321986932
-4.72743858111423
-6.79720415632193
-5.85107351592497
-3.75901373444818
-3.65714989561269
-4.26198946520511
-3.8076829832515
-4.38914030985289
-8.7293533196725
-0.913738858633541
-9.97438775360219
-8.53128486087686
-3.85501739410042
-4.89844766758695
-5.14778191470978
-5.76572204517503
-4.07761922549033
-6.41593055940905
-3.33987864306073
-3.97065123212408
-1.75484614875023
-0.135037409037279
-2.05906929491031
-4.32629566656234
-3.53151133124888
-3.72551584862496
-5.68063472590692
-5.44061062592728
-8.78624417428106
-8.01607935227998
-6.47726169146407
-6.28613237741774
-3.73747186508491
-7.24726329155918
-6.38241063764593
-3.65081619510866
-4.1288742146162
-6.6709148503323
-3.79396365016965
-2.07221067429816
-8.20086555371119
-6.07667255518565
-4.72250469265283
-7.48310494110745
-4.74666807708737
-5.97987906245208
-7.20915454515714
-2.78980203295736
-3.69929491150476
-3.57760503476279
-4.73811689508912
-2.79755627126096
-4.73831332334242
-7.3387207085816
-5.75038294993883
-3.57365424746424
-9.37154954800829
-2.28279758006163
-1.3062243797076
-7.05641354562503
-1.80494629820017
-3.82932846372876
-4.9225084265325
-6.33631376792149
-6.33533191379511
-2.97755244871832
-4.68233436511231
-4.4259081026244
-4.89756677244681
-5.85942162842314
-7.50442285271826
-3.0223094671015
-8.63692777914559
-2.96890714831625
-5.27500119514712
-2.4501265960019
-4.35112273923785
-8.80302254489597
-7.77140599810628
-6.22080840699567
-6.80338147089377
-7.27465441421692
-4.63156548098682
-8.09387100575162
-4.1212869129947
-7.37056210697558
-5.77729587619947
-6.97173893228007
-7.38421693413744
-5.407621924758
-4.40997361374742
-5.8044158240298
-1.54412387226306
-3.49166972310238
-3.16302530651309
-5.82971599560841
-1.96537157993972
-2.86379066692225
-1.23810218253752
-3.16252271517977
-0.811097469151802
3.37009777120746
-6.89844051010513
-4.98877414048146
-6.60642094050677
-4.26005855380226
-2.63631597064526
-3.895878874421
-3.58553275145502
-1.71958569753524
-4.86379126346706
-5.73966779809127
-3.78607686044261
-5.22056936237519
-6.84581859578881
-3.60095038086646
-2.72081850139297
-4.19288414688559
-4.05700455536321
-5.87713754353796
-6.81675171208806
-6.17768388407337
-9.45057743612999
-4.96568496327364
-5.28402748866087
-5.8422950530831
-1.87669391168049
-4.86755441625473
-3.56652191542334
-9.10844431597678
-6.71602529203151
-3.73036978147021
-3.49563749291384
-5.45984753890233
-5.04227357802736
-7.30347806549572
-0.426987339418202
-6.02417101487672
-1.79661179114386
-6.18510178069925
-5.4522556340135
-6.08504518030161
-5.1146037696686
-5.81025656605883
-3.36566759411433
-4.0170992828282
-9.63192660537299
-3.70533095803605
-4.97131053871961
-6.25142740609924
-5.17217402096083
-5.03658710153292
-4.92174401445559
-2.85551248297892
-1.75323974594927
-4.24961880609944
-5.56464317163509
-5.90945615327135
-12.0735426273663
-12.693944018972
-6.27187614393048
-2.24357637156153
-7.21448855412576
-9.12527526889436
-4.64313378851635
-4.31015361843041
-7.43672987371062
-4.27352421040774
-8.08300876357184
-5.69271569006886
-6.86843803942347
-4.3176022782706
-8.61797394587843
-7.03664395489042
-3.79919196718629
-2.22118736995704
-3.18606373853775
-4.59642034628841
-5.72767126285354
-2.57654437495519
-5.43420087527248
-9.85083599912912
-3.28358092684413
-5.79110964401002
-0.860089244123864
-7.38368317382821
-2.01653160687413
-1.86778395811653
-2.48147840228627
-9.14874061555176
-10.3715786950363
-3.10712508161255
-0.241862497627812
-2.95989388979781
-3.58487910648103
-5.81594239799346
-9.98432061970015
-7.23204038819623
-4.60399555846101
-3.21033140853321
-3.03634047341428
-2.93818115342458
-2.5634562378014
-6.5051326669942
-5.8382004827574
-6.81908282199083
-3.96047775325133
-2.7843101238779
-5.95734228864864
-6.1799139528723
-3.26090496168719
-5.46141217302981
-8.58994989839066
-5.80756521876888
-6.00030069089665
-4.78222741207632
-9.56800375500005
-5.66091668517218
-1.91199957371119
-4.71336923114434
-2.81100382312781
-1.7838189867442
-6.40522205375247
-8.52375516037422
-3.17178359115795
-6.6014939150731
-9.21304000961838
-6.76108127678372
-6.10684051562703
-6.48239919233753
-6.52642907514449
-6.93462160233991
-9.43305058294516
-9.83770519513673
-5.78070492504521
-9.01198429142875
-9.55617648167738
-4.03674501449536
-4.23677245848845
-4.50199220778174
-5.77275319010562
-3.02814348331971
-3.24715328693678
-6.01396226091477
-9.27701130583493
-5.76403977470655
-9.85286080355602
-8.31531218797436
-7.76819102591372
-3.12851760678136
-4.72766064029164
-5.69478167299998
-4.30269711457618
-3.73456342530875
-5.15562193147954
-6.8369992911276
-3.30176329587084
-6.28789877109941
-4.09040585369501
-8.25435753174105
-7.47897017169619
-8.7402646244966
-6.58030973989748
-7.87881003719665
-4.45721578439672
-7.14551633090679
-4.29159390360966
-2.82955415925658
-2.12236955264426
-3.77434098711659
-4.28951216694338
-3.87499844253091
-6.36867651005924
-3.61837373257916
-4.46776103847585
-3.05754123618768
-2.78297165390993
-2.55779280588382
-6.29947985813073
-2.80582614402112
-6.40205158868712
-4.69700064219168
-5.68069958236253
-5.42208452509153
-5.57093189950973
-3.55814171279349
-3.99540652681916
-5.88634640295625
-4.81900631482007
-2.028496521365
-4.82273289921999
-4.88567461983063
-4.5420882987427
-4.63705641932197
-2.65621161967967
-1.79634723605605
-3.97112363419676
-4.41327504155654
-2.05494952347871
-7.5209234503453
-4.86605514485997
-7.77170637083621
-3.68755177613733
-8.22732338359216
-2.69594580896192
-6.64299472410754
-6.27274049426947
-4.97962105855057
-3.43914302903376
-0.623386265114431
-6.05229631611568
-3.82265775869822
-6.50088088610831
-6.96958388109588
-6.51591812279201
-9.09221866009595
-3.86937126755391
-1.00605160327219
-3.1193397385206
-6.72948217258709
-1.53981848551956
-8.29926934618537
-7.38059465815144
-6.76563036967851
-2.4126805444127
-3.01450265089997
-7.24601828418682
-3.07375156858019
-6.98221944532951
-5.23328411468651
-3.21542839485856
-3.52872684420171
-4.63364203858923
-7.45318252165238
-8.32915367641853
-7.20330109340298
-5.33261918696058
-5.65896977322119
-1.45459290174547
-6.41670977918408
-4.12187817714809
-5.54897104381383
-7.56159060397021
-8.8388385638541
-2.35954815204141
-5.32764706694463
-8.0097235957752
-6.75897483351697
-3.59744967319943
-5.53410082370837
-5.39394615658709
-6.05546854401973
-5.48191433877029
-6.44912770319563
-6.37402162504868
-4.25322191826318
-4.09778114088764
-3.42689397949611
-3.68376349234769
-6.79220972718135
-7.75337348340143
-9.59490812163101
-3.34050858582037
-4.33549201452122
-8.54442133365385
-6.26680687851597
-9.1633005255004
-4.57764918968076
-4.05044200063434
-3.7225466799442
-6.13903113071512
-6.56643276507101
-7.24158989730807
-6.17775621651222
-6.68770647145359
-3.53111517496724
-8.33806115363421
-3.04735266910039
-5.75033255649699
-3.17875925456879
-2.43384663213325
-6.09577736328292
-6.68643945257098
-7.46363158173399
-5.62295927761657
-6.12828360227273
-5.46870003967823
-5.35387096993467
-7.5515075455739
-8.83633355686169
-7.67000631534268
-4.84705032426973
-1.97667680382765
-2.11598776163425
-6.00218684472725
-3.11601597498509
-5.618875193312
-5.27722862278708
-2.45677918537019
-4.82886593278373
-5.99923575624134
-5.28618623569823
-5.52601671115741
-5.30374458762302
-5.86314554780034
-4.28666064390017
-7.31848630295391
-4.61802741809489
-7.52410872725346
-1.58528964358553
-1.125785877992
-4.75761840054005
-8.80323928749504
-4.72506557182005
-7.46114040827034
-4.87453651780601
-6.52767141569539
-3.91596665088055
-6.48526129851076
-4.59870100304419
-4.16157686691487
-6.19070201519097
-5.70014358781508
-4.05493701920982
-3.4904857715736
-5.77043021808257
-4.74820978431913
-1.24222746376455
-3.16986088080814
-10.5613361315642
-6.09336081698048
-5.943027538145
-3.26395798912099
-4.13928755166049
-8.19189648480942
-5.06175928887542
-11.01225920193
-8.00607427821436
-7.56026041223973
-6.0962447965853
-2.254265756823
-4.07354193838218
-9.43650261370441
-5.03295209528494
-6.27523639894402
-4.98605743670153
-7.40715661368798
-3.29506398334529
-2.63299241933423
-5.56771190830546
-3.06059553450954
-2.32288722720103
-2.85924960457537
-8.55880518558187
-9.15691292744499
-5.196220708238
-3.571719493872
-5.21873203326805
-6.82986710999913
-7.94156601728668
-5.20635185508524
-8.60962844438816
-2.92824990412814
-4.93599457360155
-4.03752889778701
-4.60390685348585
-5.90882192395359
-7.75074346828932
-4.29833138200064
-10.7729886106872
-13.1219409306479
-13.5920502092161
-7.52930815570611
-2.7137280075472
-4.56115307631435
-2.23891277180459
-5.94693639345861
-2.21527347427595
-5.89534765054485
-7.13950347998479
-5.02024894204241
-11.3613140247035
-5.86065424863879
-4.79338547479108
-7.10153343513274
-4.30807045453434
-6.88428152750574
-5.61516968148935
-7.70870686048208
-4.46194874883543
-2.04857486325207
-4.81128251504839
-3.1225359424993
-3.82396001947156
-2.561455164145
-4.9614943297633
-4.92390712177904
-9.29056653333921
-2.95339625427558
-2.91986453185953
-6.87345761731359
-4.33280732218839
-7.48648074394397
-7.34122235145356
-2.68784669829677
-6.29764571352182
-3.90780858742716
-2.25881623807993
-7.00027263760709
-11.5494442921775
-3.79493762047726
-8.76595486534352
-3.88176463753994
-1.5960243915479
-3.17558803067619
-3.90388011777875
-6.18863477639189
-3.10144096444651
-1.25727548000885
-5.07572895964922
-4.40271715766853
-2.94911243433663
-4.03418546424844
-2.62543085062493
-7.14766094098437
-3.59467472751303
-7.09517685360362
-5.74890418500594
-7.70365474620015
-5.34351448583213
-3.63092424389503
-7.07952669551878
-6.52088688072318
-2.47873489721761
-6.08924891671321
-5.2173335740802
-2.05898743628633
-5.74810109867134
-6.40112055097401
-0.737433193490199
-2.0477135763672
-1.42726142188002
-4.25140345736605
-9.62604902938484
-7.84753167875732
-6.70455467273061
-5.90685662172444
-7.54819853102133
-4.52332650939014
-5.94351536718401
-4.36185533411304
-8.45670537140496
-5.71849091765555
-3.82411778239998
-4.85776776206299
-4.36225303176617
-1.23601014008
-3.39321215533497
-10.5882832592016
-4.59924933406776
-6.52169970700559
-3.72521466232111
-2.90360057252941
-4.1453293337204
-6.59580193189872
-2.48848547589871
-3.36336761167256
-1.85657014596097
-1.34859584094218
-1.10719777591318
-3.92826167915426
-5.56278586847484
-4.62519494573417
-4.24074233872192
-4.58981490923259
-3.35950493963558
-5.58805020203032
-8.02295477839502
-10.0203575016281
-6.7499783011712
-3.60759199882827
-7.96701623099665
-7.69694422630208
-6.89321737344525
-2.61981398259104
-4.52747170422271
-0.916855923441688
-4.33999253088613
-2.60692155359291
-3.78855108044736
-5.36060439414293
-3.31049489377042
-1.08379411602916
-3.13077817693873
-4.33087664763413
-4.7834861034647
-5.28253469760016
-6.5358775483282
-6.64114301224114
-7.43120292774414
-7.35034597766209
-3.3253986690146
-9.43386135350453
-8.67748412382219
-2.76452108288419
-2.8735743467346
-7.10079455586857
-5.98530479347192
-5.92095589521628
-3.38061213828512
-5.5406048232824
-3.05143531175282
-4.14902146902409
-5.28743646205529
-5.95444146866547
-6.93832799422541
-4.22034555094127
-4.0419817025014
-4.48726409419233
-4.99172528809975
-1.16063067159655
-1.97545993895349
-4.89351627286197
-2.16021632225316
-7.31151436983138
-4.66862971678518
-6.03103188013682
-3.89692737230375
-6.56415840690163
-3.95249964771904
-4.62211262894962
-4.96919745239257
-4.065996267644
-6.78889707862222
-4.14095399559942
-4.86055554255133
-3.37536769963178
-3.38518037067667
0.0694463080728087
-5.19829975673675
-1.70986500008163
-4.82065818694628
-5.26359868516772
-6.33575645450151
-4.68745077899274
-4.66052528495248
-7.03463974634227
-6.44729458963915
-4.51400600346202
-2.92641001945837
-0.123069367203994
-5.19659409846427
-4.83917504896041
-5.7883399972001
-2.28641067922038
-4.16485380270917
-5.58649363909181
-6.23440132628848
-6.48706170176293
-3.18709149808064
-2.73917746347099
-2.33249206732876
-3.12896104950085
-3.53744118493046
-7.50436677784708
-6.57751359105606
-9.77368010799548
-7.08803922594062
-5.37210875052007
-5.71847834243782
-4.06751424763362
-4.91786577016744
-6.06218311183796
-6.38819806566267
-4.28838397701863
-2.57942591517001
-4.76965650754914
-0.920760729549129
-2.32615434019789
-5.67568025419944
-7.58087892164986
-9.04363333452593
-5.89854797398882
-5.49429569739058
0.0800028952875916
-9.3949268252186
-3.85808931940509
-4.50822650222656
-8.19612244033248
-4.16551234819258
-1.57139291770453
-4.91156373911458
-4.08460077662813
-2.95588456246535
-4.21741960766189
-2.28319210968654
-3.20558617196193
-6.78623241572791
-4.12846254655264
-5.27990526036497
-1.0467744212031
-2.552491988018
-7.01553116905188
-4.7806958890001
-4.97298506738022
-4.56823561893105
-6.51724971358818
-3.77978388539708
-6.56012065667227
-4.9480355955292
-5.16445628408965
-2.84941464652526
-7.46474218349681
-4.83767832130484
-9.21427069379897
-3.15644998668969
-6.80184140558224
-0.155730987346616
-5.22293335663337
-7.88589454779401
-3.4465789307467
-4.45213930355772
-4.0053210783976
-4.83938009450999
-2.03258834437696
-4.06713985406709
-1.96817794085424
-2.73301898279313
-4.46435523983535
-4.86571310329081
-3.89723508586456
-4.3010570380662
-7.01254504767421
-4.19492496322178
-9.19313029202748
-4.26996603440138
-6.56167893494359
-0.55821649517665
-6.90360000207639
-3.74061237877829
-5.40085025410522
-6.34688719758269
-10.287583308906
-6.13274614589265
-2.73398361131634
-2.7855038119434
-5.09998567282179
-7.28161048668603
-9.67656184666681
-3.85658646378179
-2.6119642794343
-2.22664195464964
-0.93223741254724
-5.75089633865148
-5.10372644252834
-6.32254960558622
-3.58357143705778
-5.5678851833375
-8.35467263859903
-8.5015843808153
-4.6127064614577
-6.36303531227886
-2.60274878025469
-4.52651514502068
-4.43809331763119
-5.54158225348817
-4.09975292028046
-2.34346138051078
-3.67373482002266
-2.01518242880957
-7.32047659662197
-5.1054444304384
-4.67217594114008
-1.83018565344115
-2.94866901703683
-3.16664803376649
-4.10261911174682
-4.89597323131463
-3.24326082860962
-5.36356361030431
-5.78530504706549
-4.62035977135123
-5.68364871537305
-3.38205676427605
-3.18341804616379
-2.59676860401678
-4.85003487086024
-6.07572447836482
-6.46262383345974
-6.88001409290509
-5.32215381176858
-5.96323260752745
-1.1057806505642
-5.63507354466548
-5.53549766709535
-7.27517126037066
-11.006554463885
-6.75377840919113
-9.17007173555453
-5.30192119684081
-4.5118323549812
-7.64811317394545
-6.19321446107085
-4.90658306700873
-4.5230222147761
-7.78492568141767
-6.40128607456371
-9.13221072149143
-10.4497606204696
-5.52387797317465
-5.62968247407476
-10.8292778595082
-5.27743482442528
-3.62123809190214
-6.03873630584346
-6.88553543981135
-5.57932741825367
-4.95432691215212
-11.0908726873068
-3.73506406908057
-4.44726112994841
-7.6101569321361
-3.20673752914953
-7.06978257447111
-3.45582069648878
-6.42417227866182
-5.72482501049563
-2.91057166963964
-4.84664508160773
-7.91583374232499
-3.53423119939716
-4.09022850477093
-2.57817962737798
-3.90629838674679
-0.505075929589293
-3.18949095886979
-4.53873341475542
-3.72175157737996
-5.1305161794109
-3.79078588661998
-5.91894476565551
-5.35940947693106
-5.7833343015428
-9.36133302201144
-6.35953340603371
-12.0719143444603
-6.16453753352233
-3.04280615290229
-10.2472270975466
-2.81136683947332
-4.1011495583085
-0.527672374706263
-4.53909431494427
-6.9535966046997
-4.66250076866368
-4.13514734006338
-4.08842539735761
-5.47715339539249
-5.06588948013384
-5.67440408727853
-4.85865928341468
-5.85483430334287
-4.47956561112944
-4.12386839636772
-6.62971963508237
-5.08701648785332
-6.11610226119271
-4.66992941556693
-4.69152040809982
-6.28831053605711
-5.70026896658918
-8.35266101557511
-4.54618118800321
-6.49249756082015
-5.19554639887268
-3.03013621407353
-1.54530078582278
-2.56515376387197
-2.82378071809708
-6.0647673153441
-0.473432872358872
-3.90972360354423
-6.35792587957558
-5.4075976221843
-6.10784970009033
-3.84827246524968
-7.86653555357739
-2.82919710358287
-4.57084065556692
-1.50877604061485
-4.68478960701284
-2.35921315122923
-4.19746037564819
-4.43831959125608
-6.89637094401116
-4.24319876351792
-4.09511115902458
-1.33080469934561
-7.0793775873432
-6.00166492334353
-4.29119286896985
-3.39428334738286
-5.31432464181569
-2.63991031316701
-6.0580910474841
-3.14938675212832
-4.99500208001898
-6.40577926936075
-6.20347582115172
-3.64431793719954
-3.60508111397651
-7.32696547168322
-5.09695182022821
-1.54063974617749
-8.3608666348256
-7.38171173268147
-4.0506920716944
-10.8937799570343
-6.27012007859364
-8.32312280380303
-2.62178447720992
-4.71597103847314
-8.49782542659103
-4.11710912178137
-6.45622490931494
-3.93540333277245
-4.96581590116821
-4.24164988740954
-2.94910736290295
-1.83100002777208
-2.27665918725992
-1.52657922759602
-9.89121709083653
-1.64018073922164
-7.07353902616638
-5.75435756724872
-1.58877599242188
-0.93422243225393
-0.322276907880103
-5.58325162869877
-3.3156036870111
-4.45247682496474
-9.06883875090101
-5.19663728057326
-4.57443757065123
-7.194935590682
-3.0747290693382
-3.10401034957593
-5.25803624435255
-7.34019843246164
-5.2091397446191
-5.54514528316166
-6.92455383560417
-1.26695864546551
-5.89742966819611
-2.62470371899859
-6.84825763407729
-6.56753467576122
-8.20009978035712
-8.92667291505559
-6.09987205803825
-5.14115215658596
-1.56267610322159
-3.98427329792654
-6.90018044754079
-6.90342651380245
-8.53176624315131
-6.61653196379537
1.84967749447908
-5.73268152469178
-6.53204640425499
-5.30634383465529
-7.76532698378587
-4.76051740625296
-4.75786178846471
-5.66245704123802
-5.01383805165099
-4.54254813126727
-3.93033274473286
-3.74161630328637
-3.1239230152713
-3.90240784253564
-6.71088291909285
-3.16417715947043
-4.25468902710397
-9.64094536693096
-4.48126929751926
-4.93832906285908
-6.12212666622397
-9.27582755363213
-5.40864053669106
-4.95519321485918
-4.86905599563144
-4.35379173327965
2.28080442008438
-4.22990591693611
-5.59057803067049
-2.41998052435133
-6.14084270575439
-1.84521129206629
-0.732911373383575
-3.03928665206916
-3.9943691914927
-4.18448504825075
-3.97535674759521
-6.29277714145798
-4.14913748353387
-4.46394014714272
-4.93699884090303
-7.37734955408504
-9.48567332278023
-5.1514333506819
-5.47087442789712
-3.69350737710441
-2.86737383278157
-2.3447627003283
-2.4184082273473
-3.57275000965884
-4.531295684344
-7.08322297855273
-3.44778289250115
-3.81661053945428
-4.48049870310363
-3.43065718495772
-5.38761106057406
-4.53631333742237
-5.87146715013032
-7.6869927774127
-0.679245582829202
-2.86942466940705
-3.39621792421536
-5.35169570402915
-5.98514608710674
-2.89325215576692
-4.14297867401294
-6.32661592027775
-0.904245257293047
-7.17825008942749
-1.10027682175184
-9.73202222824952
-8.42993694814742
-5.39101767839104
-6.29315486102796
-3.38949732753219
-6.35087700239234
-2.48878163828335
-9.70734229260899
-4.622855401987
-5.40853614322315
-6.45125520225453
-3.78065337132155
-6.23412875575766
-5.03460363167105
-9.02068179103561
-2.96617246627691
-4.35600430239666
-2.34801394216118
-2.84727384684701
-7.33444737036922
-9.63625468189364
-3.68146645154016
-8.42795170965195
-3.70333832982186
-3.2413294028625
-4.5668639783855
-6.72153919946063
-11.0005047010091
-6.46653940328413
-5.53762621382104
-4.49971837273592
-2.36969026615052
-1.47939886863259
-3.29847722414567
-7.14700590236897
-4.75196040842656
-4.92996318403266
-6.48810652077761
-4.48380846835187
-9.32460705557627
-6.1164899670081
-5.93952320833266
-2.88051313515216
-4.13590567798414
-4.95667800824674
-4.4462990490848
-8.03489917153439
-8.79398585092595
-6.28564619584616
-12.2504088987785
-12.3922779890155
-1.44603200372438
-2.2055029796192
-3.66896034464582
-7.24995568042016
-6.95468120342378
-3.29984138133234
-3.34747531824083
-2.6091221875018
-6.37717902966227
-6.15156818364789
-2.49924727269467
-5.58433660354281
-4.58519339895971
-7.54042748421836
-5.57636867477658
-7.73698555805293
-4.55119480210116
-5.44009554841012
-8.35896742507591
-4.66833253285227
-4.21415426304064
-4.30519907757645
-6.0742473232536
-4.35248948506017
-3.10420251241202
-5.98268454312852
-7.89685284419733
-5.25178105143895
-5.38374733243342
-7.46063694325858
-4.04475020061029
-5.36790547335983
-4.62649362163907
-6.0138580059243
-4.13544895844441
-1.958698054
-8.68664600831012
-8.37240925381131
-10.9696352911688
-1.56560904929279
-6.01367583836005
-5.60862904464576
-6.33369556894156
-8.67857891170922
-5.10722905453541
-6.35696971463722
-10.1548022623064
-9.64826332679973
-8.3217939304341
-0.565098307907199
-6.53730731122414
-2.31645802376306
-4.32050705559151
-5.55217418013422
-6.21121132994581
-4.73473649165373
-6.0304907629279
-5.16165683322721
-3.60512762177263
-4.02680811158109
-5.23549691760338
-4.927672863837
-4.71863109508333
-7.05818147455252
-8.53197725541531
-7.59097724957191
-6.4876011706775
-9.04221747638051
-4.26581777888196
-3.6184417491011
-6.47719941560789
-4.35946689916127
-6.75770032787565
-4.94830590393989
-7.84300732422135
-5.38827609118386
-3.69873183768355
-6.04308293975849
-4.74890872719282
-3.27830409069338
-7.09867447517671
-6.26721359465407
-4.11943107480869
-6.53672623928807
-8.02236424437235
-6.05634186143808
-4.32814717908376
0.163677441622857
-7.64748316395873
-6.40826395612323
-4.83624047006601
-1.44332915412618
-3.00536108974679
-2.64927690101435
-6.70594251311913
-7.36163653449656
-4.95923047801259
-4.56372729889336
0.391268641100568
-5.7474040007144
-7.45388446196642
-5.72448490307402
0.259018190406315
-4.61326393139188
-3.52482468267164
-4.14765572593451
-6.72633669447297
-10.8136167177408
-3.41740621235774
-2.8936813563136
-3.9743013285516
-5.45880812720065
-5.77998626386475
0.432739028490939
-8.43052782861597
-1.40030720319443
-4.61561550851307
-3.73553243173776
-3.89920243886838
-5.09414951521673
-6.13238146275354
-6.78195914681674
-7.98329626918381
-5.45397095371825
-2.97342747540955
-2.9288609690563
-1.33169376795382
-6.22698774696012
-0.423223751003682
1.7767102385947
-6.44401742548081
1.05767338640753
-1.59765722108357
-3.83438812535688
-2.80327384288341
-0.616761417222987
-11.9969511433074
-6.4270816233846
-6.04810114082734
-4.483854352761
-7.54957703225991
-7.72259453275915
-3.44913612623084
-8.16699397152087
-4.75915213113479
-3.69576975063908
-3.89411973138426
-3.85494249275907
-3.10446769841793
-4.47931880702421
-3.95235791722195
-3.71818391936336
-5.24828261798387
-1.02374094973673
-2.21291639956603
-5.22149918165639
-6.24124239892124
-4.87712195924277
-5.72061246616398
-2.56813008781652
-6.51875251465733
-3.26817619549677
-5.27940344976766
-4.94574598137536
-4.01190270759776
-4.98308049912395
-5.22587007032688
-1.03045641930237
-5.92848357528629
-11.7628430520324
-2.24554307367774
-4.46623132595685
-1.48431949544263
-0.798170242854294
-4.46515058654056
-4.62777439537202
-5.5633073701377
-1.42637821067594
-4.17139479214084
-7.25655513861072
-4.52276466960429
-1.03995630077897
-4.30162380569397
-6.57381150469875
-4.13415750845049
-2.79387682312016
-7.4079773380206
-8.97335590311368
-4.83701731401166
-4.29169523861992
-7.40398877462437
-4.35770401656403
-2.38803671590337
-5.08597079004755
-4.27275493347608
-5.63877925448504
-0.433792473737261
-2.78805268566335
-6.16609905361553
-6.548836351624
-2.67047426702285
-3.53697599932029
-11.0093573311349
-3.24064974192037
-4.89721086414471
-7.0406069584029
-4.94346897709558
-8.37123601142718
-11.559948817127
-3.48827870281283
-8.43607830814016
-5.27858521239147
-6.23153868036987
-4.57926676353289
-6.50326004264205
-4.62223069329427
-3.94388873851238
-2.62271254476135
-2.57842393419598
-1.42353295480316
-2.51118560276876
-3.01543955166219
-4.44974119955957
-0.431597458971215
-3.85036810544039
-5.47429286529101
-2.19040451610005
-4.96228603094167
-2.67519909875277
0.670831496262634
-5.36454499688716
-7.31370632291165
-5.89527161863155
-2.74441046649616
-5.57219448484067
-1.51190360367732
-3.4963747417642
-8.57004015516917
-4.67088562845947
-6.96429578442104
-6.71234150350045
-3.59460417758144
-2.91114915759595
-5.91056031167172
-8.19922455301039
-5.5379737674822
-9.09789076063332
-7.63414867807792
-6.14940136036003
-7.5063101001111
-2.7491050144974
-8.32842624972397
-2.96550271360266
-1.06089538657694
-3.18818285105736
-7.82874553251497
-11.1420766574557
-6.89361870140759
-4.22744903186342
-4.37938874834504
-4.22459042957301
-5.03276817388883
-4.56742102144681
-0.910735226730432
-5.12048946353501
-5.56025815101618
-6.38024169399914
-4.84959941346728
-6.20562336517408
-5.05754952108133
-5.07278070257336
-4.12180683342946
-7.67701379505712
-4.01346327455655
1.84978015125044
-9.68904366054869
-10.0117262163997
-7.44873046615527
-8.74115755733074
-5.93799411659501
-2.05001720529077
-2.5081382520533
-6.97454719333728
-3.73031829255276
-2.73995278893954
-4.79418616264857
-10.2420953236156
-12.2268043022886
-4.49568515155975
-4.12962565970958
-5.12704450997859
-2.0069531066074
-6.65726758254246
-2.78433975136275
-4.64892718782736
-5.8592215986584
-5.83644363927985
-5.46176545156754
-9.85873164622502
-4.61916751550782
-6.84451271278636
-6.43576299399212
-6.13366070640452
-6.20314733124128
-9.09016919537517
-8.96141302669352
-9.52097686970427
-7.76129952150527
-8.36863537686818
-7.73400446844614
-7.71003437773602
-6.04645911915458
-1.16402952307639
-5.1286798881593
-5.95372562717231
-6.11839964779748
-3.53058556851636
-5.1209362704246
-5.84207533276368
-4.43529305794
-4.84141036601904
-4.06840370629027
-0.0926273162720758
-4.28571140177285
-5.88794812547752
-1.36613450139257
-3.2130450698638
-4.30985095609531
-5.37572092070647
-5.43372274656777
-7.28045440778178
-5.50951727967439
-5.6896165630436
-4.92256872174742
-6.08652691497009
-2.94051371389378
-6.37158375104131
-1.96354182614411
-2.71193035005598
-6.011082079143
-3.82880149357145
-5.76865648455564
-2.26790150548549
-8.90491508820959
-3.64511896991276
-3.3766310881192
-5.50743104984245
-6.35649623552884
-4.21149843472917
-0.832775536740328
-8.12354113920864
-5.12264028524651
-3.66195452437455
0.254915119468156
-2.25726948892648
-3.16216682994082
-3.01007661700251
-6.56365319047258
-6.00994031938247
-5.86012534506411
-6.17041363405565
-4.45405966749076
-4.04685526553939
-5.30293741828442
-6.68763250308177
-6.43168710628709
-6.24100082157232
-3.11131947966156
-2.91492717321465
-2.31108565650449
-4.05916896943783
-2.86588741409447
-6.56817504828741
-9.18280466388684
-8.35815030438669
-6.49645910531868
-3.64912610708459
-9.15597920660124
-4.7948442543625
-4.67897259505651
-4.59001462554304
-4.63076375597966
-3.58857527901243
-5.6302317802012
-3.30620733176744
-3.56459647450001
-0.850376376022161
-8.15492988008968
-3.96207032451321
-2.78996983266668
-6.76909038175219
-2.75424752160656
-8.25912558156857
-8.8258905831838
-3.07892820483265
-6.31065433124718
-0.621058322082227
-3.3753827109166
-2.60445678978349
-3.05362005582407
-3.86439057890632
-5.51557437351669
-3.10029744281234
-4.27699143185199
-1.44000434138369
-5.60192805161601
-3.13494285348232
-3.89159390790776
-2.55484222073785
-4.36459856990427
-7.21406705996716
-3.90752797322434
-3.21323639285575
-4.80136054920861
-5.89207589322604
-3.8080941053082
-6.75067110587155
-3.67282851640418
-4.4770214124939
-3.14018259839971
-3.64716965247157
-7.70393924861598
-6.18262442512867
-8.19286650712036
-6.02187632185483
-4.83711562572349
-4.15611305407846
-5.09265042857551
-2.41337942231375
-3.08848169251683
-4.55289499851136
-6.41692686826293
-3.67829898302798
-5.69822266144364
-8.92948028059021
-9.02775840431184
-4.24681080428415
-2.27457434638687
-3.81949522336605
-6.90626906848923
-2.4808121052743
-2.42884595057053
-1.25464990234607
-2.5189785141292
-6.4312633045574
-6.53139391011069
-6.67376258811998
-5.18999542958645
-5.68338733769562
-1.59223134792919
-5.15094593282829
-1.90746378067898
-5.21903848563425
-2.81736493291715
0.459532897172218
-4.27264018817547
-4.35323285940677
-4.65641015983884
-5.36682638877996
-5.31683305476634
-8.26170987061336
-11.6025865657379
-1.33899072986024
-6.49171586232378
-8.71502637550868
-11.4199870667477
-4.7690729382559
-3.65100157952409
-1.59500369698573
-2.18607667200542
-2.61413793581927
-4.21692633195705
-4.62516062823993
-5.9532254752911
-0.378088616240078
-4.47667902393492
-4.24031160835212
-7.07463320471242
-4.27107505563728
-3.93852104077365
-5.39257163850138
-9.88811822598819
-3.39874215985876
-1.83467969347084
-2.643962563672
-5.65716421008526
-6.68749711819775
-6.84620401730816
-4.58413461451532
-6.90454056463541
-0.825249212681319
-3.71603362653575
-3.62072512171999
-5.42753743252024
-3.15040292582244
-6.04270784758952
-11.9288669853707
-6.39467443110536
-6.64160803022606
-6.81089011267406
-5.75697556127415
-2.2890864921127
-3.6831084105868
-5.12808761997817
-9.50470510310183
-2.61165681287896
-3.13197691535065
-3.67037087156001
0.484969173242027
-8.90751685978566
-6.81705714427535
-13.0730487753464
-6.27439521244285
-4.31825245676122
-4.62245925737137
-6.20697808462302
-8.45828348101558
-5.5273316962452
-2.85512004520474
-2.68951203815632
-5.29840771608915
-3.03248548519919
-2.50620567195107
-8.91445606321793
-5.5160540642672
-6.51966914261202
-6.18873876431541
-7.55577319944749
-5.14332117659155
-5.76729526568814
-3.69757317615144
-2.07580785343873
-0.817288054858873
-2.90395948592341
-4.5201163688674
-5.13048317575179
-6.42320862756334
-4.02153956156553
-4.98731118893994
-5.29437910985882
-7.14935491966463
-6.54236057773655
-5.88716616904511
-7.17493859929136
-2.98012832044132
-1.69130555380433
-1.05185315609991
-3.47886052482482
-4.29390650841073
-3.64586628005651
-8.87256426732736
-3.80627930569822
-5.85545156949098
-3.97169816886359
-8.37559550101153
-5.26190311388013
-3.62837480961629
-2.80290157842601
-4.15678300643279
-2.92136928812963
-6.11338441712213
-2.7348749459451
-6.40025413867129
-7.61557205334227
-7.00329110987578
-3.10900943081792
-2.8651732121472
-3.95513948018965
-5.54432030141013
-3.20075481522651
-5.09925218650738
-4.55856883048563
-2.51459636639775
-4.52900356036206
-1.35867505006558
-2.4750040367722
-4.28469237999173
-5.83083626797478
-2.44703545040068
-7.61270899972449
-7.70813535968425
-3.41192495032922
-3.48196981333145
-3.68407365392495
-6.03135040708542
-5.30368038805875
-7.43809237228508
-5.74893280058938
-4.72233780661455
-5.28093362086624
-7.50704713613836
-3.8328681306781
-3.44049402069662
-1.975200505742
-3.03104525883818
-1.73016734181865
-3.20342968546074
-5.62679413262275
-7.47251473944182
-4.79785657329113
-6.73320592236876
-3.75136685800123
-5.07221413307692
-6.64142153448814
-4.16715206518481
-4.18344872716719
-4.53478445383253
-2.97691811501952
-4.6838697620101
-3.95680401017437
-2.52530773587553
-7.36972565805916
-6.81739135035124
-6.8809414873752
-6.15865672624974
-3.88327781545372
-0.572750170217476
0.825092305427731
-2.87166742969232
-1.25416294602667
-4.93159808743496
-3.70285932602409
-4.63152157408949
-6.76652385427821
-6.00037515853101
-2.3953374624675
-3.27280643872152
-4.72051115128601
-3.08333994588051
-3.35468290363697
-2.17588201413573
-7.76457994707068
-7.08046374332112
-4.20950114636484
-4.33126398994318
-4.32260596785469
0.239898301578655
-6.94324877896552
-8.36951881122963
-8.54260904255303
-10.9472786185255
-6.14194228620476
-4.04138415124287
-5.0318964277657
-4.37368432518439
-4.88700873803813
-6.49941199887558
-7.42791037761615
-5.86995140619114
-5.02365835813113
-3.97603402226972
-2.68769964799278
-4.41308201087626
-6.40836990957643
-2.0088125192781
-6.87841310196566
-6.61463337153572
-1.28346829078193
-5.12008922785632
-3.92728893638774
-9.17846293413566
-4.19699435913287
-4.08536308648087
-2.43413165022173
-2.5020085545454
-4.50274254870946
-3.75803666508486
-6.73152797596366
-1.91973234722247
-5.33618555890807
-7.07727673943225
-5.13458455076462
-6.14850722180859
-8.01564507100479
-5.84914574117903
-0.36947381299821
-1.64971504621267
-1.31565957781341
-5.99389204128571
-6.52827863464156
-1.70469272367606
-4.02639029625877
-1.18243592750439
-4.19564105119105
-6.39672132141041
-4.26260504563267
-3.27085023712412
-4.85530442582819
-5.1782506265691
-6.12630768182623
-3.59473343777474
-2.33707355723083
-3.94639815290643
-3.21665348424843
-1.69028769153111
-5.16430116249086
-5.80397913416878
-5.11728265657149
-3.6568199191467
-4.90136027647004
-2.85422538211012
-2.07055852453164
-7.10913430552646
-2.26729803024748
-2.66700309083942
-5.97770720621987
-6.35792162910474
-4.83620782066812
-6.67464613545877
-4.88913334203587
-9.8073900060093
-1.3809592943323
-2.2116759272971
-6.64356426461744
-5.10023292659883
-2.90004843701575
-9.73792487394252
-6.31551533582773
-1.78220914955268
-3.7339043513175
-7.71763376099532
-3.92215733044595
-7.48287965208939
-8.13490188622968
-3.32419329242682
-3.97032709864727
-5.37532300746484
-5.84383091225328
-3.34622055007332
-6.16378683555408
-9.31359124591977
-8.58905522489409
-9.10648605429883
-6.65640880524694
-2.65181155624972
-5.11039097620288
-6.88292479992058
-7.1624434758441
-0.752599538419725
-7.08547608097138
-5.90440997604071
-5.43831744567397
-5.34209546820311
-4.53670043651072
-1.52916286612919
-1.91435029055839
-3.61664444993346
-4.42042521186405
-7.03623952715719
-3.58044392797152
-6.10733024646855
-6.46887539440821
-6.36404923300838
-4.98341325384149
-3.98110850774897
-12.9222976900251
-2.59410421758775
-5.48494201527802
-6.55095994200335
-7.91829428452077
-8.21387922263034
-5.22050373856491
-7.92532166272947
-4.29681611400818
-4.1190003031492
-4.09834009339602
-3.61981931118251
-1.23936591030075
-0.853433021601376
-5.67960025481829
-5.90670105753696
-5.99887858870477
-4.84727116924794
-4.34756249995457
-2.25948527255667
-5.73161855393171
-5.6232948180975
-5.65372293136563
-4.24787282791875
-2.84335710847424
-5.31343062744081
-4.0682875362673
-3.0904279353701
-0.51200622005018
-7.45779189788364
-5.95719605870454
-7.0066436706355
-11.484557619138
-10.2773181446797
-8.74661833751646
-8.84240666273231
-5.39043431127387
-5.12953810570048
-6.08540758324346
-7.67402235135105
-1.46671982122362
-4.50642797132547
-7.52482409044345
-5.36766454436848
-3.53119079686332
-4.5784071068961
-2.85967182830983
-3.68735680032214
-4.27205475402062
-4.32335831818655
-7.00453666313435
-4.3260161752426
-4.79769417427363
-3.20206189759259
-4.66703263648842
-7.90576299694793
-4.2955451626834
-5.69991536787454
-6.88868782301761
-2.51637838638318
-7.31915319335676
-3.84702741102944
-7.73857661419041
-6.01305401346156
-3.97415462227062
-5.82831366218261
-3.98170086303766
-5.30373429027185
-6.61939643041814
-4.94502137051433
-6.48468648630349
-5.65884650518482
-0.963386281147462
-2.89298255479504
-2.68929952218737
-8.34954680129236
-10.1387229716429
-7.46968880672942
-7.34264681297772
-6.57439201338882
-6.48117978485346
-10.3242857473508
0.260382153688336
-7.04229968498531
-6.03111131181792
-4.40210022392754
-7.43822930478993
-7.50441997853777
-5.01145650206094
-4.49792379249262
-8.65467066928455
-5.46739265133091
-3.8345252342923
-4.94245641366181
-1.54990520862645
-5.18000566109866
-5.54927846532447
-5.24230828479312
-4.28876654994632
-8.35319799748483
-2.85874968856655
-4.88333911906936
-3.22460701464571
-5.82027485444458
-4.24190146183215
-5.80716609765849
-1.55838756573764
-4.99689870760043
-0.38833718659185
-3.70336180658493
-3.91091121131461
-3.3633166480585
-3.74559084323124
-4.86418811197548
-5.05142718406742
-6.37847351297238
-4.71780511846114
-4.25149314899612
-4.84236261911537
-0.70304559859362
-7.74200788546173
-5.16941910773006
-5.2973842641855
-2.23768466175808
-10.1467523778905
-5.32805363373225
-4.58181663155038
-3.86829542168391
-3.88633652474066
-5.07978085156911
-4.5214318567662
-5.15856822209237
-6.2107751593126
-4.76886806945899
-9.42090698602
-2.29072234844763
-3.23497943864357
-8.01751406648559
0.0828235002155457
-3.72721189666199
-4.23596663708393
-3.75411694988791
-3.42171890752495
-1.50885541300677
0.894150540315013
-4.48810302341784
-2.12005434287029
-4.73604192729465
-6.14463296082448
-4.77137025406962
-5.90414763483888
-5.43194596654077
-6.42472814047025
-7.11265200185672
-7.56235014447236
-4.85225492986273
-11.6325255267719
-7.64692534363593
-6.1284218029017
-5.1062531343899
-8.45142413213115
-3.71512939257467
-4.7436916851614
-7.19627774590217
-4.87412570959448
-3.23385196954733
-3.86550619652255
-4.8466037899222
-2.94494663471434
-6.70232901314793
-6.53119320013653
-3.5874548371706
-3.71930745224219
-5.65585671090365
-5.09535642612302
-3.44673740966159
-6.10617229195408
-5.41201631344421
-2.30672164574752
-6.73350504646726
-3.3003150500072
-5.03894923273139
-7.76206709415288
-6.80357057750784
-4.5703755275983
-3.22661747537207
-3.82613097164058
-6.49689145022508
-5.66640923820296
-5.79533286528833
-8.28207699077287
-4.96517364268767
-5.17773849178436
-3.9235909761013
-5.86314748114549
-1.18401801669225
-5.618434328289
-4.83228481425301
-3.29660178781646
-5.01104875206336
0.441963394054286
-4.70735210309543
-5.81532577172551
-2.01958961435468
-2.6217960176
-4.00675406024257
-4.27241704229884
-4.41916133263504
-4.71698288615768
-3.09335224352039
-9.00503629046073
-5.24577813553579
-4.86806083787712
-5.56090442629849
-5.76560130498835
-2.75259430877393
-4.45068394922012
-2.74925181504128
2.12491070332802
-6.98340055108256
-6.66170896106387
-3.91821352078485
-8.56390666340527
-4.34477579944513
-2.89949297565773
-8.06491131988178
-7.90631786252149
-3.94660224008627
-3.65429128225642
-7.11816461020358
-3.47981637365741
-7.65663780274197
-1.8348633289711
-4.11834402747308
-3.16774598332549
-3.98172332720649
-3.70617099681527
-3.98453573064521
-5.64105278779719
-2.34835887681136
-3.33421123350949
-2.94461588678145
-6.11487918838834
-7.03120446727745
-2.51840774250361
-6.28162645900219
-3.88225587955347
-6.83650267855064
-4.9360326795537
-2.79757302233009
-6.986027224523
-2.41057251898945
-7.53115655747563
-5.29665511868192
-5.51228093454889
-6.76146223278147
-6.12667789992933
-6.13556643352999
-3.91600256844468
-6.5383591075633
-6.472140418214
-1.75533174233991
-6.37740036516862
-1.17649295863431
-4.56538333210132
-5.60134465493188
-6.63844878087124
-2.24429034133175
-1.65197893568032
-9.62061211215529
-6.08272903284492
-2.37191814594816
-2.05498100108988
-5.8256747555276
-3.13634444706257
-4.25733584805139
-6.56448576323553
-4.03236880847425
-7.30052349576422
-5.1660481942165
-5.3686597320328
-4.79985985027759
-5.61209033482282
-3.55967593165019
-2.13765507633022
-4.27996694250554
-5.67629512345117
-4.95287470894052
-7.62252620017453
-3.92611139992349
-4.45637218516525
-1.88072187591729
-8.06462066929147
-7.57663660936987
-5.828920111314
-6.69900139100837
-7.76446611967776
-5.75717867537835
-5.45027336956135
-2.63781606115353
-7.09459076533412
-6.77579581847745
-6.54815674653958
-4.73819198360948
-0.611938259022363
-4.12354243663894
-3.83456903886227
-3.88690089388883
-2.86783358232323
-5.20156420767244
-6.81110156511006
-2.98518301952844
-2.9487793731516
-6.31945204354217
0.0759465305815419
-4.52372059231858
-3.88252028020616
-5.6802176396218
0.107770495249226
-6.81424374529574
-5.57592990470027
-3.48138227978388
-5.95342389112393
-5.59390419829971
-6.81140477577111
-6.8354713634848
-7.71920042817513
-6.33914809426683
-2.82602873018932
-2.62491419526911
-4.47412355280701
-4.18480541154106
-4.1935753744216
-2.48234769605038
-12.7609476234197
-4.07827250251993
-4.62720039242638
-5.26842768219278
-6.77857782469755
-3.16273908697245
-5.63453333041924
-7.04865322162615
-7.34964093415268
-8.79344708385466
-7.07013448308794
-4.84999684233484
-6.25390544430551
-2.90741574600059
-0.936046399287082
-4.8947942529006
-0.409862682455772
-3.97344662331967
-1.06551340054036
-3.63793201940868
-3.08419592167315
-0.619452111991856
-3.12231917665608
-3.73994078320339
-1.97974846244082
-4.15308453522268
-6.39059136475289
-6.28967291668346
-5.97056765472022
-2.93735505154896
-4.89216025153508
-4.32187012401705
-3.69498090010834
-7.10214917432263
-2.13692485426241
-3.71828647668625
-3.74967327106727
-2.1472931943173
-4.90373947391948
-4.03118719097345
-1.90332993593989
-7.93116807895364
-5.35878787146253
-4.50444112561947
-5.43683835752764
-1.96965808168709
-3.961518530363
-6.26568959148449
-10.8597402937803
-4.07603171320761
-5.59521842140412
-6.77930672849579
-6.14150340004818
-4.08611202893359
-3.64111776231563
-7.35938331393711
-4.12299835469162
-3.66043145699073
-3.10810717845546
-5.22925053934485
-2.97052291010357
-4.23787830554733
-7.79065484025703
-3.84287949927999
-5.97943763027001
-8.16351856359541
-6.84336855082087
-5.87855356964935
-5.46612665911439
-8.59185955991221
-4.91715754039121
-2.35616874828725
-3.95024777372523
-4.19486914734619
-4.7375837101401
-9.16053458453557
-6.43718361174135
-6.40325618703445
-4.31842942244372
-3.1862358344411
-2.71043716954087
-5.47414881062371
-4.70695007570077
-2.06876879870358
-10.1469237444859
-4.54315439275967
-2.25250485981961
-5.10421041344669
-5.92964116501756
-2.48731097632592
-0.443232578469258
-3.6454775017745
-5.66701029310512
-2.83831166823241
-5.45222847083668
-3.45154381984992
-1.48400922462695
-5.98227987049706
-7.20278473310855
-5.38866403103249
-3.84248703434496
1.003606102201
-8.89971117821035
-1.47243657756638
-3.93392447151944
-3.61680352731116
-4.35284309642048
-4.5428826472249
-6.37339053680715
-4.47484030936654
-0.334840632365183
-3.88173042844017
-4.42218125204818
-4.05438323817646
-2.77144363018956
-6.10098496630171
-5.27997625687612
-8.61333947950392
-9.18172572454809
-2.69212153514848
-3.09335624854414
-8.29378333059079
-8.59553007189225
-5.99403734867852
-9.92095387219025
-11.5037181944664
-7.90839996034339
-7.57022790497244
-8.90108469471298
-8.98422770174667
-10.9712683396927
-6.38734688813556
-8.38730759243939
-10.4086727635379
-9.8196685398124
-9.09113731650615
-7.05133691524442
-7.80323870492942
-6.94543790794582
-6.70922014157007
-10.7335869521304
-5.54556733676441
-6.02298421547521
-2.88837434210047
-7.79602778485743
-7.7144753501782
-11.3317082222726
-7.54718821402465
-7.5082649513074
-9.8267460031815
-5.45205809108829
-4.08850761127843
-3.80542359391438
-4.88588098591425
-6.43191873402048
-1.31075019779843
-6.05563750004595
-6.80477296078155
-4.10059068592469
-3.79751794953347
-3.73077770413273
-6.03627951507898
-5.35241175567408
-1.92959785936669
-2.68144223894822
-3.90693427103778
-2.70948933410299
-1.95211866034323
-5.47329407385756
-6.65666763105259
-3.90201805918174
-10.1927636214623
-9.09180382545864
-5.22447056268869
-5.61948016859217
-4.3044428969589
-3.32769462409782
-2.64224579188764
-1.15237592305717
-4.21105271753936
-3.57961570633336
-8.21831043706749
-6.55370932612767
-6.33860293520316
-6.20404110042581
-4.59900838276486
-3.18700486089748
-2.0694171690346
-5.24232509971612
-8.71904317541499
-4.78452039676372
-5.78637268466708
-7.20113233988946
-2.00189027653718
-6.60393491006696
-6.27398849818932
-5.32010195180902
-4.98457055810435
-5.67622434200377
-6.75904367668801
-5.75117069343263
-11.0488725616891
-7.37265587283669
-4.25266154496556
-3.80571001492594
-2.33023477498514
-5.68724086385148
-6.68480624204083
-6.77097009682069
-7.39969289924041
-2.44707353186686
-10.1683277108337
-9.76100809372137
-9.41486854445884
-7.8875185351655
-3.02621742831801
-7.27672633906466
-2.37487491257456
-9.08829243557534
-10.5108713310804
-1.36330800425866
-1.09398797596148
-0.394523127497519
-2.83490727411296
-9.18890144261085
-9.05189681372564
-6.97709931869968
-1.3420695280037
-7.2793175501172
-6.63374165776261
-5.62185548701418
-10.0236854152747
-3.34473158858687
-5.61427013273738
-8.22718548556986
-9.64271082501022
-6.3215024198958
-6.02821919535598
-3.51583359410907
-3.66491004110399
-1.74192460638178
-3.44374078006407
-6.85533750996609
-5.70710557851689
-7.79048333747076
-3.23045654732167
-5.00072566969383
-7.80934887998135
-5.28781587764047
-10.5950108647143
-0.972616921744532
-3.80223289985957
-8.43348297122056
-8.80707858480878
-5.11600199999359
-5.06444858750895
-4.8680069837562
-7.33998681337754
-5.41251447074956
-10.0355794495375
-2.28130119574091
-3.73063153815127
-5.24041977899131
-10.4197413414872
-2.14971830311543
-1.93417401967523
-4.80881570014253
-2.65410345261462
-6.92223672312316
-8.01175326349464
-3.42374463252605
-0.61838835235817
-1.71929295443401
-6.32418113852078
-3.06149623495276
-2.51484275197015
-1.70467696820779
-2.81454601590078
-4.01060168455334
0.721431880196191
-5.83342928045001
-1.61138622598355
-3.45084922682456
-3.65777102669186
-6.92984167559453
-3.95095246360208
-6.73479465429777
-2.54708534663096
-2.61741114954572
-6.06808681940284
-4.96700477506615
-5.99640063859217
-4.70004430466109
-4.66564300565856
-3.35080213053961
-3.06474599589886
-4.61672968124333
-3.10799354974389
-3.80317953036863
-5.12780701940023
-1.78100993706089
-7.44973710157584
-4.87016551393627
-4.06150805943398
-7.42503111337789
-5.51571808475947
-8.94078722352821
-5.90645135055017
-6.10473835631606
-8.33742882561533
-7.47564868473452
-6.74241671878459
-4.22918392452814
-5.2442602555894
-6.78319227274447
-5.48445988881896
-4.41621213880277
-5.24911517071651
-5.30965106622225
-4.47268153510754
-3.40264944506036
-3.1676190424545
-2.91299015702956
-2.87735813272683
-4.69380607500355
-5.21330604963545
-6.30524213754328
-5.95349683100542
-4.1957629354065
-4.68105216981339
-3.42070636182533
-4.13351398127449
-3.71997924939358
-2.59146476374251
-3.3587908273802
-3.38756300914789
-6.09373742265779
-0.634100322679386
-2.15924560843274
-8.863299522903
-3.26059347921102
-5.14347554612785
-7.72231679263729
-0.96829346737792
-6.2287285111967
-2.38927420959355
-6.00511408427151
-4.43101197483639
-9.97480097437031
-9.99910783986676
-10.7870254519525
-5.30529001313628
-10.4935359547044
-3.5119381979802
-4.84854987463096
-5.81100685809846
-6.89704173611781
-7.40039578981824
-8.47518484671733
-2.52066411726757
-5.91783901238868
-4.57313055732523
-2.56723549841708
-3.1491489490638
-4.65465616190011
-4.1271077996387
-5.55281801216159
-4.05346908853542
-2.33556011800901
-6.25356158620377
-6.04161803270309
-5.76307387227216
-4.55516567845929
-3.13940479434165
0.395478759601495
-9.30677985241267
-3.96047775325133
-2.7843101238779
-2.89617200718428
-5.68722615505252
-7.00788172199359
-10.1711583185669
-3.35061539943214
-2.42709214638875
-0.195481122166897
-6.12872955972878
-5.80523638580762
-4.72082940056352
-2.98552825722749
-4.6468067166427
-1.15606282512932
-2.00876702003126
-10.2729116475036
-8.778427629023
-7.56780102688876
-4.78506065312993
-5.42470607191655
-7.62756479261812
-2.95391495203824
-4.94373781181651
-6.95113550733927
-5.46119824723744
-2.20641693533877
-3.26892778695975
-4.09181937544329
-1.79140458047949
-5.96619011690583
-3.53394733728389
-6.85925793531137
-6.53950738274335
-4.82923645891804
-1.93477212675159
-5.93138075043704
-4.99784848814188
-4.2046792893206
-4.8453916840863
-4.24503757288567
-3.03716799765906
-7.13310891359637
-3.4632797308239
-2.285190201903
-6.70691910242156
-0.53521029423331
-5.48181161939735
-7.13691772788035
-5.12924651738486
-5.86348266877742
-3.25953358918684
-6.92314751662786
-6.37123595758166
-3.20586249097435
-0.74447224927891
-5.45570081207615
-1.9461886504276
-5.96864959086276
-7.5241177514988
-5.49627686635361
-3.36877847162545
-4.22844596031605
-8.93971740530295
-4.11006890303219
-5.45418254750834
-8.45694159244316
-5.58166406488749
-5.40636909984923
-5.81072785778694
-3.5834952745506
-7.67771017891381
-4.39725147501228
-2.86863024151005
-3.73751427187736
-3.19399832613316
-5.72230271020954
-0.481202324542012
-0.822108105542689
-3.42719998963255
-4.10880750826329
-3.17262503533445
-5.59154055541407
-5.86759965694253
-4.90334748402409
-7.41117695740587
-5.19670158249772
-3.1577601199039
-4.24999858753499
-6.17972814170902
-10.7513547896544
-9.39983266246572
-2.85330639970519
-3.86612560132354
-6.13713948374503
-8.1239014928783
-4.33349470491639
-6.4385261214892
-4.98431865912712
-8.85788024647788
-2.31116165710515
-7.1092354235992
-4.12459329698712
-5.45951971574351
-5.42120796420449
-6.75830400558876
-5.00118174007478
0.289849080782203
-5.312438917823
-4.49686023076909
-3.0164575897013
-5.48826137826316
-0.827129286221134
-6.24024595891089
-7.31097145913485
-9.25350168980763
-5.48876660170421
-1.69439768715053
-4.12181959714783
-5.87419202084932
-5.92366207979926
-6.72703248973047
-4.71679482942752
-6.50075378046185
-9.50931315140453
-8.09506536590097
-2.85756206980872
-2.1268614519033
-1.3711142980601
-6.32252045713863
-3.66362755686312
-8.36553122195215
-0.862572052051041
-4.04286766218552
-3.33060988657181
-2.85705843436881
-3.66500842378646
-3.33285466075198
-3.65348627768463
-4.12590820422116
-3.5951736527023
-6.92112354711093
-6.5282931362454
-5.76286492673043
-3.68101064594843
-4.19035414145804
-5.66706115162979
-5.84482614330648
-2.81909013239092
-5.05470906884483
-5.17549839487122
-6.51966904717285
-5.45392314893573
-10.4275805813945
-2.88086164545378
-6.90384379214875
-4.93591170907178
-3.41994032102884
-5.15748684274327
-7.1051764032488
-7.05989071891846
-3.27431730395198
-6.95049968989928
-6.44102487798049
-5.99317764798876
-4.82590388632082
-5.04724157029677
-9.47196804415779
-6.22217836514014
-6.80361539911682
-8.3607134443485
-2.89182805670209
-5.69778375198827
-8.34849139191805
-5.01797267992629
-6.92260596229323
-9.33023642118898
-3.70347237965275
-2.02908232093067
-3.16297448007959
-6.86141458165015
-3.26757307950214
-1.86522375619825
-4.25070882397855
-6.73650758678519
-4.80764975458232
-9.8554117062699
-6.21286788663004
-5.25616491098701
-5.43534569061184
-7.12071464955525
-6.2119344059946
-5.51140613205016
-4.89011551719014
-7.92900628520857
-10.2859172680053
-6.54338577982782
-4.39406240680194
-6.82792993257342
-8.68553876726693
-7.74458787570494
0.0817407884639984
-7.34716655071585
-5.79629125316364
-3.99859227809054
-3.74590027221952
-2.45583575887146
-6.88811633091109
-3.50758748758117
-2.86232779202674
-7.78738717568093
-2.37449593913116
-3.76074591082262
-3.0538871929012
-8.43500879648403
-4.60218506376733
-5.19028247977157
-2.79953746977303
-7.67140903156838
-7.16494266872272
-7.33881655819454
-5.97408283365252
-4.9449767359949
-6.87362560746277
-6.71668136363479
-3.20732313596608
-5.50383887028125
-6.61553826129687
-2.19198697341008
-7.20979245430324
-4.98125509148615
-4.73331772689286
-7.03840319289978
-5.1012458575537
-4.38873974505114
-4.85329700705945
-3.8490586846789
-3.73113283788216
-4.83619199917483
-6.51790258880031
-8.29129163639666
-4.31704546625261
-4.55258490762556
-4.08371470198131
-3.46346831854424
-4.82025415177615
-8.22146827637139
-6.29620060442452
-8.62062887912478
-9.20888768755716
-6.37670571053861
-0.966367532543037
-6.61641293749168
-5.22276215603353
-10.9786777600527
-6.70185091140309
-6.86091138452287
-2.11055642953828
-3.36684396166551
-3.04059905464278
-5.60099772132791
-7.93630849114219
-0.960495454859797
-7.31547890634108
-6.17754979890057
-5.36028742972788
-8.41308429820957
-3.93069720211197
-9.2550888307405
-9.05486928836825
-9.38272319821772
-3.28417465659306
-4.27628712378718
-3.97138151300417
-5.42820747218047
-8.62300294270668
-4.8443633660039
-7.04103736287829
-2.51283039821254
-2.6324956466451
-9.44987721957952
-4.86194352147117
-6.42572877886423
-7.48325029031422
-3.99626530683827
-7.57780570063778
-5.13760641792212
-6.42545197274073
-5.734971540638
-4.72899720617703
-5.30719793662107
-5.67000603343596
-6.73885259266458
-3.3738386746351
-6.61872864242371
-1.78165050219385
-3.45165614656635
-4.49618778516053
-3.47520855184119
-6.1250699272588
-4.32961184272734
-1.09579784024475
-7.57607961438559
-6.65554998238104
-11.0852596004721
-5.88820464095275
0.925074129594011
-4.44710200312248
-4.38470050899536
-4.78424685364778
-4.76593835465657
-5.84627022468287
-6.22207160957519
-5.2098913121827
-10.3274523698889
-5.53145929775345
-9.49122096647885
-4.53157759946396
-5.11637401299837
-5.48145026088132
-5.02355717753001
-1.02438867654421
-3.51029721677976
-4.2265232362834
-5.47889478274481
-0.265500134879283
-1.24222746376455
-3.16986088080814
-6.51998361302813
-3.61571147690981
-6.11681305510907
-6.88089042108713
-4.33206328039339
-4.3648930031235
-6.338741020873
-4.79984335275141
-3.77647391235538
-9.26478154085252
-6.61017730461323
-5.61977989131171
-6.22139754038982
-8.29581326208286
-6.48411128635004
-4.16572419081979
-5.75622737090838
-3.42763021746594
-6.86271792956915
-7.70913660234502
-7.83384783833808
-2.40969099544951
-2.61834373294365
-5.01667385418343
-5.67216727427015
-6.94739084481082
-8.91615402713799
-2.70413975838626
-11.9694231906123
-4.87099670120907
-4.95046910153372
-3.46840330478521
-8.48376307370948
-6.87192865935754
-2.67917929988128
-7.91090369685598
-9.45266074597526
-9.56483066365891
-7.73154029540914
-4.3402213629084
-3.9989939465681
-5.71177434931076
-3.89176995544097
-4.80994206763401
-9.73716317025438
-6.60196293099968
-5.87991368991298
-5.6966910616918
-5.30095845684712
-1.58912619971554
-1.05087790649733
-6.25264978106222
-3.51490295944827
-4.71410509461732
-7.01543864783041
-3.35975864313427
-6.76015854374137
-7.82058673237896
-7.41701795546359
-6.04750422123806
-8.04465393505595
-4.28654877447201
-5.58877774658117
-10.9006628510978
-4.99306252897266
-4.90342660215544
-6.09492635840137
-7.75697014137271
-2.91480397773588
-2.06291546502573
-6.57976299945708
-6.19990201577869
-3.76790320629379
-6.87262679242053
-6.71994682918628
-8.02770843239872
-3.71434466196989
-3.13950036725663
-4.31992482615281
-4.48520331998865
-2.38318957439662
-8.30627344838873
-4.04979242379714
-3.30586936266292
-4.22453527705847
-7.66628657841026
-8.48356477011259
-6.5817779504567
-3.8396145099433
-6.42384026032712
-3.70585618101009
-4.75153859527167
-1.82046551497618
-3.35642052639395
-5.80636444900946
-5.45179271872729
-4.4720263829494
-5.49700946077917
-5.32937374078686
-6.50089583410162
-6.90674935572959
-2.57806385966032
-2.71415563857493
-6.1323119804298
-2.56272977661021
-11.175024014535
-5.72926632286168
-8.18212701425271
-6.6408120971352
-3.09308482756923
-7.87402617111455
-12.6596073967923
-5.40849689737812
-4.32590230423585
-6.78200343178306
-7.0908478190932
-4.75491051159475
-4.93799150803401
-4.46490640243005
-6.50457112564577
-3.7878534086696
-5.67881350488117
-6.24548409223879
-6.62076047520849
-7.11744341266238
-7.10599093105827
-4.47893661875663
-6.39490002183994
-11.3935367791111
-1.65103261217325
-3.27246157465977
-4.63945758661996
-9.59739629252318
-7.6521990514936
-10.6421992801966
-9.13190996503403
-3.89660838399846
-2.98298171221129
-5.95799321431833
-3.27771690436444
-5.94570301373742
-5.60543742649816
-6.83044990690943
-4.00408256394496
-0.615337335445505
-9.15112439423391
-2.07863957795134
-3.61587837936082
-2.23814329624562
-5.43878835821462
-7.83269538016384
-5.07054621902924
-2.66243683185598
-5.95696196504965
-5.04891474039084
-4.38981658847351
-5.34710988085157
-3.71766876003703
-5.11164626324033
-5.38518202781348
-3.4436063269968
-2.35418478616883
0.310441552092115
-3.24605017343221
-6.55374165806532
-3.80863437579643
-3.65283125171359
-3.69077594071508
-4.63226596869218
-5.75453900189585
-5.10076776242629
-4.85825874728225
-3.0446216213697
0.428657929532811
-4.635599909745
-4.635599909745
-4.635599909745
0.42312511680052
-3.8667520566844
-2.76163686277686
1.59596898150236
-3.71843010549053
-2.98665655801571
-4.35412095301349
-4.72833083761934
-5.53148157190674
-0.672334969590982
-3.90427647414219
0.109571932249942
-4.89495929665767
-2.8692544082729
-1.81340889040296
1.07897635471776
-5.20534677590727
-1.45220729121485
-6.75386342447495
-2.32468812758824
-6.03199632296689
-1.93435650332559
-3.02524766285755
-5.46998776843513
-4.7911418999616
-3.8002263633987
-4.72471476166257
-8.64772130215439
-4.23460585697652
-0.921190751874742
-8.19710718146477
-9.5268056780421
-8.22083051763025
-4.88535431377995
-4.9051761014024
-2.21920739487508
-5.98937337972306
-2.52284648884046
-5.39129655233901
-2.51899235064433
-5.26325967504256
-1.60862779903692
-2.5506230207329
-4.43599528810926
-4.57416805069716
-2.18845752170296
-6.67816010461251
-4.75695305635821
-3.32010525627321
-9.93508539210529
-3.10860496854509
-4.62853368059772
-4.02981792770018
-8.06916304022923
-2.10045287398515
-7.53104181197138
-2.42681553670594
-5.63603249291278
1.66960008441329
-2.60982804981097
-5.61353505164534
-5.64492481231085
-8.39124063959617
-9.03085349832144
-3.05070824183616
-4.23787100683923
-2.45624159394892
-0.679955115818336
-6.92397672006931
-3.48114889292731
-1.89074190226318
-3.6531013101493
-5.14409577501355
-6.53019040589332
-7.58368116343417
-4.31579756592565
-5.08021568413849
-8.14855777454522
-3.44710572089266
-6.66744946747482
-8.27671830709621
-5.62893835378597
-6.46534405358108
-5.26073557482739
-2.17563993874505
-7.13038615529564
-4.49220819465819
-4.7384595160405
-6.65264688198447
-7.41288614204141
-8.09898043461569
-5.9182509324065
-3.90632277494807
-5.38886681241533
-10.9623228045208
-7.50708728812862
-4.47548967049262
-8.61698200591698
-7.31268494958721
-5.55936269465073
-3.49614158887343
-7.8451977768436
-9.29783740725026
-5.36004010984832
-4.06783139459637
-7.42343400881399
-2.64853205687757
-1.16275692837415
-1.02470697697139
-9.31145577353659
-1.83181557042233
-5.46475530843812
-3.78187798226523
-2.65668874619491
-3.81564370814173
-4.14383743932249
-5.80546766756787
-4.39094796591953
-2.10224649127085
-4.42678196604912
-5.89562358702868
-4.972590448406
-5.16610728831683
-4.89630695426633
-3.02135289983707
-0.206770231543009
-6.51482939340903
-3.83771267500218
-0.434819634693204
-3.76600271574001
-5.99624372027056
-3.03672936089401
-6.11739488173424
-0.838293414823491
-1.18037741011359
-3.70835587662375
-5.32574793383378
-3.63272335841242
-3.25191871278026
-4.60095195990767
-3.74593876936684
-1.30967245847329
-5.62471892382111
-1.69690181983965
-9.08413527541074
-2.64863957337969
-6.61845657957168
-1.51233940300758
-9.02626615917908
-4.45438496243321
-3.13968259309373
-3.28398232886936
-4.04300136505194
-7.19855445351702
-4.69224718508668
-4.85967639947754
-1.36602179006575
-4.63484944227313
-5.53178737178368
-10.8664022902396
-5.91695187733277
-11.4333746070731
-11.5997675143773
-7.3234773091753
-2.7559611159529
-6.60988026790682
-7.84926002375369
-7.00596608141554
-3.31445446635921
-4.6850608061551
-4.61167104478173
-4.40522572997078
-1.44993122696865
-3.79660494166022
-2.9530094626483
-6.91298095868001
-3.25488750063128
-4.57246112801887
-4.86265667282162
-5.84762096290301
-8.11277393086913
-2.63215750291231
-3.98514960786074
-5.33216872314242
-5.1656487694664
-6.19159216718298
-5.65566613886618
-4.8039372661062
-6.92252996458501
-6.07689678562793
-6.28561759964229
-8.09031300298863
-7.80054575018689
-5.86731743901137
-6.1545938945059
-3.42988337627182
-1.11101862911039
-5.37955326425759
-3.09564643455605
-6.0313022244676
-3.92005064796408
-6.55468973885523
-8.51763312415381
-6.22043664879775
-3.59176053006062
-6.47746837343331
-4.30154648380558
-2.99488911672311
-6.01822863655925
-6.25941282995743
-7.55231631379268
-2.21682223442027
-8.53170717081268
-1.55310364171378
-3.90200573878394
-5.86262911416789
-5.08220044452541
-6.36555862575013
-6.3742446892434
-4.11696648682139
-4.92412651085417
-6.10757502240566
-3.43112727758447
-7.71197776391357
0.954344842743118
-6.58707291323955
-5.37253268562638
-8.16352007948149
-3.72154425632662
-3.67423903488275
-6.04961627149843
-7.12815764547049
-6.54192240447817
-5.01963078581892
-4.47920966686411
-1.49040298115595
-4.40602249162611
-7.34831812971521
-4.40048279178451
-4.703972597396
-3.27013275095954
-6.58769032662004
-5.40397537793876
-4.61588926810363
-8.08391356895805
-4.53482710349739
-3.0107382145602
-2.41460999521071
-5.97309554334109
-7.77129783210624
-4.24562731105416
-4.3620137652203
-3.43197529443842
-3.62343029363174
-7.57784635127603
-6.18354690553281
-4.02103180570626
-7.14331814603183
-6.03230043456203
-3.24508304816456
-5.90831405153454
-3.49746435906365
-4.75356513943023
-5.81612233078691
-3.75054341498764
-7.46500817522963
-5.32857155443331
-6.49172044228397
-6.36277032175006
-4.69491584718968
-5.62585541514108
-7.15348090794321
-3.61718085057706
-5.46637363304933
-9.84594779632213
-7.28781318396474
-8.48352394134629
-5.63429821005533
-4.82495630435618
-7.34966581734083
-9.91552306957604
-2.47397644887477
-7.5320427858087
-6.94360381193351
-10.6339225851075
-9.30314190720672
-7.40427265170705
-2.65552650326499
-4.94625458949201
-9.12826052537823
-3.62827578512086
-3.82175512559494
-9.70188671866906
-1.95596613368075
-2.910250512719
-5.15329761058275
-5.5357616018891
-3.49917899354209
-4.39666547528377
-1.25305194161751
-4.73169486913165
-6.61550010636434
-4.57895212577928
-6.6028656956261
-4.3807150220471
-6.0799236703463
-5.79659080764343
-7.27225474709374
-4.79463782256453
-2.30600798089164
-0.780327473162295
-1.69908259250719
-4.78799225816329
-7.31370199641823
-8.38660612564153
-4.23420700453409
-5.76483082473902
-4.16091981615027
-3.22273389062264
-2.04188961495782
-7.10248857205753
-9.5094971930917
-4.59235356285826
-5.82617617810663
-2.41044223094274
-3.73660693394553
0.0486692314170026
-0.727408551327207
-3.74241117646137
-4.01510462144856
-6.06151092346399
-3.841956884226
-4.50943193997041
-4.47614721991547
-6.53562500083725
-7.90547076476198
-2.67386460525143
-4.36671552358016
-0.420820668270398
-9.84873063361181
-8.08117212574029
-2.75701230001959
-2.43357331932178
-5.94436056648499
-6.76013181217547
-6.63715603469255
-2.81346486950572
-2.98881772239485
-3.290606667719
-5.58844412766246
-6.77977313044995
-4.94274739810753
-2.30139696520731
-3.77918206472751
-4.72712941470117
-4.75776647803359
-8.02843140597436
-2.54703238100432
-2.36521794219991
-0.0719904721776486
-6.40866478537104
0.935981945984604
-1.2441297522202
-5.71256941346025
0.480264914428954
-3.22292451483521
-5.74859687907693
-4.91828049982813
-2.81555141392031
-5.33113195064312
-1.07079939611806
-0.970115324409916
-6.01101139219218
-4.3101258474816
-5.12092912901474
-4.72797288664539
-4.4212166714604
-5.67148070296855
-8.713232024933
-6.47851705710005
-8.87315594833141
-6.3729097860775
-1.64730059446401
-3.85772402020905
-4.44391023808975
-6.80082409458105
-4.99612471327247
-7.12301707201778
-4.24879392356493
-4.88388462896401
-5.81500396960332
-8.58072454292479
-6.59415346841078
-7.87339781534973
-6.26824097653357
-5.32859370446971
-5.92881864271255
-4.03750056939118
-4.57218779712558
-5.45898281320098
-0.875323499536537
-4.63928060098109
-4.83782452296717
-3.00197707768594
-2.18511185354538
-5.09138673116702
-2.53532346351583
-8.41143774321279
-9.23734557362549
-2.74826521227907
-5.79596130018168
-3.94473551012197
-3.96032383369489
-6.59829278261489
-4.34437601886601
-4.77178449831645
-7.51022892667279
-3.74721428573365
-4.54608780776153
-4.17768068584693
-3.95557011372728
-7.59725014865662
-6.28620841122139
-3.31592411962011
-8.59549528697697
-4.77183743261997
-3.05424412930536
-6.0521969707339
-10.2821438005817
-1.60295284229211
-2.59289141810057
-4.99070259842086
