-7.34415112030667
-10.4726911925968
-6.11313136713016
-3.40948971376618
-2.77827334313202
-0.905069973482154
-2.70150105077327
-8.75529886653903
-0.887759371610451
-9.62930785527613
-2.82535021657065
-7.30663289510815
-4.51516639849121
-4.25278036800753
-8.77845283638143
-0.0806102115393343
-3.92651546057661
-5.10520272284564
-6.02203767226072
-5.58967543173275
-4.96683052028758
-2.44614334977003
-5.6499946519723
-5.91689336909184
-6.2370964098158
-6.79026786249389
-6.19049843763946
-3.05513425414653
-4.55951789426867
-6.60069022889922
-6.14186695067174
-5.51641523170094
-4.91257609208473
-5.15592390528606
-6.0963661547453
-1.79830627205239
-4.15467765532608
-7.07284217630472
-4.87464357635722
-4.40814318837476
-4.10244661439965
-5.82218449728017
-3.44212677179719
-1.85702344862742
-4.90320597283007
-2.57883179764893
-2.50718304883619
-4.96706871479548
-5.19739758543904
0.0114282401853005
-9.27736317088336
-3.34658274337282
-5.62443459364662
-3.72581669182881
-4.28767320703329
-1.76153306567147
-4.89741811064024
-4.40138505885003
-4.23536784747954
-5.57315746426253
-5.90210413737736
-1.82208854009986
-1.63096154940039
-3.68804788327871
-3.26049304046776
-3.8071709398989
-4.22546991500864
-3.08804533363246
-3.92817050084285
0.09409541936429
-2.64501112842982
-3.30695927601621
-2.68385439330003
-4.81421263415095
-3.65034558593088
-5.52451887941841
-3.30297709880101
-9.96435788975872
-5.66625420385404
-3.04348092701511
-1.86695464324753
-2.57956082003073
-1.13764345978237
-3.21609047183393
-6.34438495970455
-7.32068677935565
-7.91002271115141
-7.63189658345257
-10.4197896116188
-2.53671342369357
-5.56760310999654
-5.11107940337725
-4.14486799330881
-6.13177665176828
-4.90145499394278
-6.90843789655194
-8.40192547941821
-8.46611709191235
-9.37889889000389
-9.61930480698627
-4.21451151416573
-6.19892809105913
-1.19819695168019
-6.12647755714902
-6.59917427241204
-5.21480983788817
-2.96564230024021
-5.03209597223832
-5.20096377489687
1.38125787451086
-4.84826014674891
-8.90514285579527
-8.8235913143877
-8.78270470470333
-10.3396607893222
-8.69789794820851
-5.65627970601641
-7.72212517860678
-5.50376389007632
-0.984591743652838
-6.59687524089381
-5.20156192230889
-5.91727164503692
-4.24750970566688
-4.61279722309202
-4.22546495314505
-6.4518609929606
-4.77428757270703
-7.31411198634924
-2.70150105077327
-4.57442003932404
-4.82250610351103
-10.3063814979443
-10.3424768528024
-2.39666088042786
-9.34451653298865
-3.22402521091713
-7.01055732856545
-6.15546797327467
-5.07224244384824
-6.16400593760413
-5.37268188447417
-5.83162542058193
-4.9691628147561
-4.02159713606144
-5.52808617341449
-6.53731262187703
-6.11100927344718
-5.96306558788883
-6.25077047998954
-4.83003432031673
-5.18702193445411
-3.79480309306986
-2.68157565843725
-4.34174794101515
-3.47640445355479
-5.06192803495937
-4.08957794188878
-6.97771717081221
-5.23993125005921
-5.16437367287442
-3.89102801555177
-3.61896302127435
-6.06570635263834
-6.15097674541157
-7.38675672524863
-4.97021664195411
-4.89724998009765
-5.14761934657519
-4.87339177858753
-6.94843909721658
-10.5141066956234
-9.9941616419001
-6.85540608728129
-6.67165096189156
-9.39355328819514
-4.20528803995377
-3.14026733034496
-4.99163358100103
-2.82581290921491
-4.02554735038078
-5.481609947302
-6.64080939326074
-8.21588931401357
0.55387382969675
-5.65178645670703
-6.78149372669623
-4.96236884855669
-4.98529322807325
-4.38313744583054
-4.62901882895666
-5.70102168503058
-5.26830352116705
-5.21598713915664
-4.65349143654876
-9.60204669361408
-1.88119209879672
-1.85845595082724
-6.06756354292702
-5.50802990091806
-6.13288428076677
-10.1696044031199
-3.73768892831747
1.1177956354894
-5.54958513489952
-5.96536490664263
-3.35901233026911
-6.3524788763482
-6.61928992410661
-9.41721903845854
-3.20944720730712
-4.49424644645856
-5.10932456802119
-0.0130846354224842
-8.46852268189492
-5.65942933639633
-2.16322375744333
-5.51722464920903
-2.54590113237408
-4.24457073075162
-4.10266044730972
-5.33651607454854
-5.72399873168775
-4.98529322807325
-4.38313744583054
-1.61246699963072
-5.57999488634522
-8.92602508408916
-6.45190990701099
-5.60044872189456
-3.40797322546432
-4.03329204037123
-9.21482569497553
-1.05565758640582
-5.24805079550846
-3.90984866717357
-5.62814801148673
-6.14755307791212
-4.93736819240621
-7.92625721159383
-3.82680801657835
-5.457563353758
-2.74519343583465
-8.5608775960901
-5.16102628765469
-3.68998334717142
-8.47710841007219
-4.98821832023478
-3.38006168055766
-5.29913520881146
-6.56312360421027
-7.7590254403802
-5.67999313302828
-3.19510745206282
-4.29996211000222
-3.20729170884052
-3.36264718288651
-7.02462436820748
-6.02340661414442
-5.07172226509609
-3.63652605261809
-3.64677523495483
-7.10507917863416
-2.51105462708849
-3.76106734731424
-5.71417249785416
-3.34936462292352
-5.70633863501463
-6.24053859909855
-5.02863902663108
-5.04124372000064
-5.40741249551063
-5.26830352116705
-5.31142554093395
-4.4605778736879
-6.10620454434611
-3.99396190597471
-6.6065156529348
-5.69152739186331
-5.25234237477063
-5.52163091212554
-7.50911697807993
-6.37282768940468
-6.73504366443699
-4.15565122683557
-5.86076885637613
-3.8732185574804
-4.01644652015767
-3.18314382781799
-4.44878530554192
-5.26830352116705
-1.81523631321371
-3.52828481825067
-5.49986048822766
-5.92656987964523
-0.625901739730939
-7.80614144735051
-7.19922312773704
-4.78834519580677
-5.581336386614
-8.04352672241075
-8.28829675695443
-5.86450751310812
-4.89074860294212
-3.48135047869479
-4.68472990294859
-6.07720532953544
-4.93874003528772
-3.89359522171589
-7.64164722242242
-7.40706514946558
-6.70119028220072
-5.23528997198891
-2.52516958439253
-2.69407753946817
-7.18418822884146
-1.58379702369303
-6.09489787580124
-8.69728906742689
-6.56337706428835
-4.21918264340156
-9.25631050011506
-5.81996573602851
-1.53427836416723
-5.47107333605291
-3.72271395210076
-3.45060452978906
-4.04227334622696
-4.01242488253248
-5.01093723307664
-4.79035633081911
-3.97014150802822
-4.36539088318226
-3.27802409885172
-6.86416621016538
-4.5005777654269
-4.7831275622409
-7.45825917427392
-4.93737328494592
-4.55207838535488
-5.52632861852078
-7.41323534688765
-6.50529703402443
-9.38670212639144
-2.26811889512983
-5.39000399248859
-3.66568060273445
-4.79274621908038
-8.5205267266759
-4.27949486804056
-4.08830166421412
-6.42011162830533
-6.03969544692251
-7.19878976148574
-9.05027865825307
-2.08123995717886
-5.53799103032322
-2.80971032815668
-5.47532066952141
-4.60956791491128
-6.55919154777399
-6.1864929275749
-8.91145015019778
-7.31054840309963
-4.13530605477655
-7.34361260600147
-6.54935753999631
-4.85477812693478
-4.88266282055329
-5.34198673850702
-4.60467735123987
-4.02438553404966
-4.14884573458565
-4.03481730892133
-7.96158556175405
-7.89160733735912
-0.71470290361343
-5.86354969321051
-10.0625774438308
-4.70964888350317
-3.65345797214766
-6.38589040285011
-5.78381115610446
-2.9974103153681
-4.54186015503227
-3.54774613374112
-4.88390976157345
-6.04068980338126
-2.7127285505985
-5.28342071805364
-8.6740150092648
-7.90366803962334
-2.63336595716835
-1.67087288947155
-4.82472119326579
-5.0304729668918
-4.93961359947814
-4.63119268507757
-5.67180587823142
-0.610523151470872
-7.13915725326429
-7.06627885198585
-5.95804023835528
-10.5331127071826
-4.12419516219789
-5.75496119002655
-2.04275550377477
-3.45768299396528
-3.99843516560043
-3.48027911950163
-5.06241631271056
-5.41220371663134
-6.04334566308229
-5.66223870534682
-6.37946422688913
-2.79821792526537
-4.25356072046191
-5.04913291105517
-1.65765944685157
-4.48614486891449
-4.47484232217983
-4.5184695150483
-6.01809258573221
-7.99595408594562
-3.46072268956603
-5.25572102276384
-4.42502675774377
-7.30577224047614
-7.1279771164616
-7.91571767689454
-5.3411829837888
-5.44235152298796
-4.9257272742002
-6.65015482942927
-3.65166555841672
-5.79393290246849
-4.05083279723082
-6.31944444302548
-3.61623756411847
-4.97347479651077
-5.54454431696214
-3.89928619534647
-3.24845658254205
-5.08316563304308
-8.09304965791054
-6.35518895892109
-4.24267263766735
-5.55540004360842
-5.33220063574469
-6.62029085565665
-4.97605635868022
-6.29753564356949
-5.13499967148145
-7.83288553216123
-6.58787280121119
-5.6029064594204
-8.83514422903197
-12.4930038352541
-3.97221531029887
-1.9572068426839
-3.79149550502965
-5.0950347611153
-1.87274118493622
-5.1350383161682
-4.51609864718558
-4.47400677633135
-4.8883020969542
-6.50866749910827
-3.20675063310708
-3.50054127225204
0.223790795602819
-6.49524913863627
-2.62831952703105
-4.57177893915939
-2.56367808271325
-5.8051543937951
0.171976411941466
-6.2585364194715
-3.6736041548685
-5.89955493985545
-4.75918241988408
-4.75172224536188
-4.52105257382131
-7.78374774548501
-10.747145073725
-8.39478131845463
-4.75303841009539
-5.20656770458291
-3.36922564237178
-6.07709572896144
-11.3271833909164
-2.55302017917584
-5.51245778993475
-4.69841501270101
-4.11981453374176
-6.21821501381566
-3.05861570904927
-2.32498821200096
-2.99701123733821
-6.11263767395149
-4.67187115630959
-3.61389482183215
-4.02658720120479
-11.6839972121494
-4.44382636021828
-2.8840914282253
-4.86445745969957
-2.70331472348762
-3.021754703189
-6.00865179407611
-7.17541332009532
-4.71413124833308
-12.0752268688113
-5.83708004271674
-8.8073633941415
-8.47348533491556
-3.21352583028813
-5.51109651349768
-6.99003874543587
-5.02513622181584
-7.70372461022886
-4.07967751880712
-4.42287612246929
-1.32654029896724
-4.28444641031645
-2.59785080854685
-8.4864540747083
-1.38396103158232
-7.22221077485594
-7.26152752335404
-5.0167412661793
-2.15154819437802
-4.92742624197587
-4.64297740638811
-4.24457073075162
-5.25991117503008
-5.93614601670811
-9.7018015485764
-8.11767167399758
-4.3424603917963
-7.37123124388411
-4.42688101166065
-3.26594109660859
-3.30053945363917
-7.0034833542837
-3.90633469972886
-2.38249103121326
-5.4368005880132
-6.04044788130344
-5.99768877553529
-5.51168288889649
-7.44824502352744
-6.57747725285206
-9.3692397157725
-10.2159768760508
-6.87445150038124
-9.22390914804467
-6.96895409249516
-9.29803100336484
-6.47667121209115
-4.50228360249055
-6.6647677816324
-4.32496237973376
-2.90046278893391
0.0874313010021714
-2.82161987046599
-4.74637216351146
-4.52008866231166
-5.28365861825334
-4.86235814357766
-1.67963241898425
-2.13503702916049
-4.17133015515552
-4.05655998498519
-4.94595730691269
-4.09127653925417
-4.31976116732513
-5.79235431345902
-2.35197787570539
-4.70304149360101
-4.52473494293215
-4.92418396496765
-6.31495688019024
-1.39857864242615
-4.55120233595927
-8.03718545209083
-3.75731964798414
-5.23407085167061
-1.58599510813676
-6.57343860956946
-7.41765494813856
-4.58918825291056
-3.77027552449523
-3.91719551347925
-3.55421540507916
-4.85235389001459
-1.88732721916631
-4.66881165234653
-7.40895797363543
-6.09684999871053
-5.21433083542063
-6.63611734514161
-6.94793008609612
-4.1038670503884
-5.80546794412424
-3.43076819393367
-4.60884865752085
-6.44216015846251
-9.38317581677641
-3.19445843845289
-1.81874650561061
-7.04414509977451
-9.66507942154078
-3.91732511539354
-3.07963730142848
-6.22110864635357
-7.79934762397479
-12.2649024454372
-7.59292888426714
-8.25669767772523
-8.93812516686593
-5.80707792043224
-3.42167357201168
-4.47209724307223
-4.31093565840737
-6.12657334367721
-6.95708467071592
-4.74091421301839
-5.76783789652406
-6.55838558912993
-3.73310243947475
-5.64822303300954
-6.85887421149278
-3.07391724661566
-5.1734461223432
-4.2124207756244
-6.04418810566892
-5.16554785926327
-5.80302969025874
-7.0096449195396
-7.95462393158675
-9.73182615619102
-3.7465795204953
-7.60053265345208
-5.30333867098958
-3.48588999746459
-5.43171541326892
-2.34224444840592
-2.33389638849113
-6.45027764034283
-4.0404793456171
-5.86409410106526
-4.72464346947941
-5.02379444731194
-4.34982820690834
-6.02930974279019
-6.78237638093942
-2.69456396125587
-5.24617119469098
-5.33591640626182
-6.40602923173778
-7.78133660391052
-4.21286912285241
-4.82859945043986
-2.12133197358013
-5.83481727127798
-7.6703039846132
-5.71598020255354
-3.62458197496041
-4.41888684445688
-6.28028044694425
-2.72172428481105
-2.6738678350705
-3.23461435561487
-6.45024303816091
-4.60416187369678
-5.90180559549888
-5.29456370246471
-6.69703322248945
-4.99139164805596
-7.565786705885
-6.36483590893332
-6.42021790683645
-8.47356672650646
-4.22195997608569
-5.23113747521635
-4.73586782350407
-4.5875600714854
-1.68574713275916
-7.5356470947106
-7.00446662448687
-4.72728166814971
-7.57884225311643
-6.09993212789388
-5.99222232852558
-5.37822547283902
-6.59953851439169
-7.06528557332565
-6.91429654842273
-8.37250521399371
-1.04594082438972
0.82821054310648
-3.91368103017565
-2.0408234319515
-8.29909355488791
-3.40667472724909
-6.67393096652874
-5.36941403726517
-4.0781888455534
-5.81335806035308
-7.79539051776509
-8.39854798550634
-8.14831225675544
-3.08706646261899
-4.72113755975304
-2.85495869461818
-7.01567813169174
-5.24523134130289
-1.36714220799355
-4.69885069437384
-7.94690504020617
-7.39624149479204
-4.26460390111579
-4.48885004686079
-5.0710430368923
-6.97844918167179
-6.83346905884746
-1.76289975690999
-6.5260019983544
-5.63789118722297
-4.10957820017045
-6.73225714038562
-8.78830724005366
-0.977151518415949
-4.83234148674103
-2.22636363771436
-8.00897949833952
-4.66669769095136
-3.49468752349337
-7.83387288198809
-6.32745977788557
-5.18351744790329
-4.48931955184973
-6.11033751764119
-7.39460021122084
-9.92775216218337
-6.88697107823897
-5.16466222849567
-4.89176072371552
-4.80145934998786
-3.97434033138178
-6.1863993810417
-5.30695435971866
-4.53255669694228
-5.6845894882897
-1.99263429429457
-8.30495821714477
-6.21473150178438
-2.66255935325779
-3.26931631774153
-3.63087901393113
-6.72936242109298
-7.32112699114116
-4.26104496579549
-4.56911968086789
-6.73723821800127
-7.52690862857934
-4.23200361683351
-7.78672841899557
-7.31674470838722
-3.46484029057476
-5.38087455072439
-4.52105257382131
-1.15780605293866
-1.52681146364115
-4.51348248064841
-7.02462436820748
-3.77175492259866
-1.92493144306793
-4.02693104994548
-3.25000318606276
-5.94375794238929
-5.19457802520548
-4.23075006403618
-5.65504758011943
-8.80599234144157
-10.7693966958557
-4.95401307289753
-3.25193804011225
-5.07524972182638
-5.70342557291477
-4.0649774931954
-3.46484029057476
-2.40585455793504
-4.76510552011866
-5.38087455072439
-2.39225439291769
-4.93165589484716
-4.23993720293158
-6.36440935166576
-4.11432758662877
-5.89881800861384
-4.14231513213108
-5.01188468587144
-5.07014084600364
-3.26488801065394
-3.20727809912924
-4.88688977350893
-5.49601740513054
-5.24844623441087
-2.55239963355341
-6.00410121566581
-5.29844244945572
-5.91310385782027
-3.50772143104263
-5.17954315635704
-5.27573673206858
-6.87149157760173
-8.04404648537956
-3.98496064262188
-6.82049692749645
-4.84218787385268
-6.96118989703702
-6.1912157576305
-4.54115581574198
-6.08734659506202
-0.49282932759455
-4.34427625843765
-7.00687162351558
-7.4851210027508
-6.46467450546286
-7.10044629909535
-7.05954282784498
-1.3922879563975
-5.48660781809729
-4.49574047973549
-7.33254615563393
-4.2907165774776
-5.43202926886198
-10.4098366175685
-2.60642749842584
-4.63220559489464
-6.76224658751128
-9.80195880080774
-4.63824607239701
-5.5642311048771
-6.60338891855573
-5.41978739270497
-6.90292873982056
-5.16433043997058
-9.50471656143117
-12.2806863129555
-3.89844783301472
-5.5412127835278
-6.91901214955415
-4.29307235880449
-2.51759644061497
-7.26581774123865
-7.76960290215676
-4.63247857446348
-3.55173572070233
-2.86308263025244
-6.3267588916496
-5.63772345371114
-5.70576168417195
-7.95243667914055
-8.28465569525952
-9.64009386531978
-3.92309353629167
-6.78527573332716
-1.68801341369581
-7.0343771772624
-2.93486948240519
-5.31977168122851
-3.4597839528661
-7.35811166055862
-2.68937394268632
-1.07983778463019
-1.13510217739399
-2.78216428349939
-4.03068938104273
-3.09910422531337
-6.16822430583084
-5.69931698093951
-6.47916434655015
-4.77203065785042
-6.89610918745761
-5.30964710971665
-3.94407537928552
-2.12085619242003
-3.45671577233599
-4.56480033060939
-2.86357066294826
-4.89677436460346
-6.22908314935331
-0.897979799308377
-8.2345322842114
2.29868845131709
2.64544358935706
-4.31979464490097
-4.27885811792561
-6.91349457940484
-9.75240885639831
-8.71125038847587
-6.37308846225715
-4.53742512008581
-2.26736785417726
-6.28550163022674
-8.25825173660081
-7.0140557324558
-4.99382611969571
-6.46000374801127
-3.7070260862046
-5.42569470958737
-3.69917819445949
-3.05840370234854
-6.42669530753928
-5.46202658822112
-5.0161520194734
-4.96297935781879
-8.46672120474745
-3.21111107826967
-3.56439671483555
-2.91625532382017
-3.02154617873254
-4.39663000657578
-5.88322236571263
-3.97725370034703
-1.46597202260181
-5.72337082471909
-6.4973001431248
-6.59670046237938
-5.45194847171781
-7.06126641285237
-4.61717489128161
-5.00687536880492
-8.77727324503247
-5.11170352227219
-5.65076932227309
-4.39352858829689
-3.99220479043623
-2.67983031742985
-6.16745178773213
0.0851688342517874
-4.80753987652488
-3.84693250434762
-2.56223743327378
-3.04022956541245
-1.22773416702171
-9.22087119190826
-9.07508300971405
-5.29880776698042
-7.13109429477769
-5.69946085392542
-6.32528971214162
-4.35070746361495
-3.73452060368977
-9.38094442634831
-9.85592337447618
-6.83335791918282
-5.7104686114366
-5.24420984314177
-5.43027248858533
-3.60229238844783
-3.69509931446569
-4.273837607704
-5.64596363024347
-10.5160447552614
-4.25315429875073
-7.96446668691482
-3.4489232869232
-5.83918823790717
-6.61928992410661
-9.41721903845854
-4.72478559943196
-4.61434371920719
-4.96519248760551
-1.29480400293183
-5.79080940123431
-6.52013311546887
-3.83151734366859
-8.03403410004252
-5.53535706580426
-5.18477183010278
-4.83570964000779
-4.79953101881199
-6.08784042355114
-2.64897347219176
-6.77716471612298
-0.152306932071113
-2.47455693812861
-5.123713405451
-5.36575732084302
-8.06343326532232
-9.89619097511083
-4.7780359441033
-7.13047827762291
-4.5038228698537
-5.40599746684746
-6.00934070983903
-5.31641075275338
-7.02745239623967
-4.1593805872519
-2.05808967813333
-3.42723324795628
-3.32580667938889
-4.66479342151892
-5.22505848468925
-4.77203065785042
-6.89610918745761
-5.30964710971665
-4.11018752140653
-2.18835051427635
-2.92038634973999
-4.26505960899563
-10.6615912511841
-7.44843993658928
-3.50700074069427
-7.36396325283791
-2.05216230361294
-6.83500271436424
-4.18636395737163
-5.72460505836687
-1.58701729641926
-4.54743418267457
-4.10660239346099
-5.2735540376097
-3.05781753759021
-4.98616173371663
-5.09562832060568
-3.06461155372814
-2.98745081715997
-5.52635665017615
-2.12226458013614
-3.58858257083083
-4.51735498152463
-6.81053204778953
-4.85725433276358
-5.14618151535749
-8.88668108884397
-4.53583459238307
-6.92327789273065
-5.29994134819742
-4.59406202554516
-5.89114408280059
-4.58623617469737
-3.01059764458757
-5.48565580829041
-4.7725324335962
-9.37824837903918
-6.6894493291544
-4.32150728601651
-4.58887481670972
-10.954403380427
-3.84300332300797
-6.46351537229438
-5.59610139339164
-3.93996232596241
-6.32151283616271
-8.03853276010659
-9.10105307236481
-4.59602071877596
-2.85249772047254
-6.06269622449833
-6.0788335164439
-8.5932018227233
-9.78473181909332
-3.34413470445517
-5.94723998327141
-5.12303965332078
-5.87450142331876
0.273577456842338
-3.68618072334389
-6.17955264933726
-6.41505298045845
-3.83837306834423
-6.72313853612475
-8.26554779880069
-2.17445126153045
-5.68303097871204
-4.70594406361999
-5.6980902275679
-4.93102695415628
-5.04959378549716
-5.11656828411664
-4.5404685624582
-6.22687037591644
-6.02114853648677
-5.11656828411664
-4.90173013224125
-5.55002942874093
-1.89206753380999
-7.74408064649665
-4.99676325014683
-5.90432950298111
-6.59168028758306
-5.00829692399481
-5.90738363561663
-5.19412765054019
-4.43335326334379
-4.34399404972286
-6.32863171275338
-4.31893259912624
-4.25234059618973
-5.32288100673462
-7.04230666202791
-2.68864178630618
-6.92774843773419
-6.40408963154684
-5.6815837529878
-4.79168402917539
-2.42927156175325
-4.86623454407995
-2.68323173616996
-7.09964101460792
1.87540588645727
-5.73683164221851
-7.23026613808578
-7.92621744611473
-3.067262645474
-3.93655616725569
-3.73163131636753
-2.57287684371057
-3.45755259272342
-2.50184030705213
-4.55156586922496
-2.19936482819649
-6.36440935166576
-4.11432758662877
-5.89881800861384
-5.01188468587144
-5.07014084600364
-3.26488801065394
-3.20727809912924
-3.54836959939492
-3.45406965744373
-3.77182109799201
-3.27172195421674
-2.55239963355341
-4.93165589484716
-4.23993720293158
-4.14231513213108
-4.88688977350893
-4.87563549250593
-4.18514931222659
-5.49601740513054
-5.24844623441087
-4.88446592810193
-5.53364829021119
-5.06598397053288
-5.65605139949937
-5.29844244945572
-6.00410121566581
-4.976309853989
-6.13225881406655
-2.91309276195255
-1.62303028485363
-6.36609631852623
-5.01143671603005
-0.591704072952904
-5.51584207460869
-4.5989370940891
-5.76496353453681
-6.45728574973285
-5.10534452400052
-4.88524348394842
-6.28023427354394
-3.70901439575771
-3.80893794354325
-5.94565998684393
-8.27708089521484
-6.01249870604505
-2.51809458757967
-1.65059087813848
-4.81825055527299
-6.47916434655015
-8.00902112927352
-10.9414004980987
-6.65667710773016
-6.46201215329418
-5.38109369602396
-0.685588398241357
-4.84098637417404
-4.50287463610305
-3.03959021145104
-2.44593548299581
-1.20860777677108
-3.03396522000991
-8.11875314884858
-4.33366142362372
-7.38432533449105
-3.75726460971807
-4.09955713285466
-7.36255138035162
-5.54392096631019
-2.91076656305378
-5.80144933512376
-4.55339598939317
-5.57757305218711
-6.08829980345806
-6.96966431563909
-4.78620336269284
-7.96440595810989
-6.3267588916496
-5.63772345371114
-5.70576168417195
-7.95243667914055
-5.965233090597
-6.59568600295307
-3.05570968317494
-2.81683796084177
-6.89890148344989
-5.9444816034893
-4.87683864766526
-6.63556399339807
-2.1819715249214
-10.0715210099711
-4.6603168823617
-7.37862874887259
-5.57231490498608
-3.25056497085211
-2.23505953460248
-4.95645085080097
-6.24890524372062
-7.37808616742772
-5.86586352902952
-4.70611901276436
-5.84192158979642
-7.46223709446827
-8.41702034168954
-7.38464323445115
-7.89014897737134
-4.0807005954376
-5.26830352116705
-0.591704072952904
-5.51584207460869
-4.5989370940891
-5.76496353453681
-7.11383370082484
-8.01369279290847
-2.0289802351733
-5.39872883066948
-3.51879528940793
0.153767086510237
-5.46041403222013
-8.41910120881795
-4.42611380242628
-6.58070920379525
-7.07406317891993
-6.6065156529348
-5.69152739186331
-5.25234237477063
-5.52163091212554
-6.10620454434611
-3.99396190597471
-6.73504366443699
-6.83178479979276
-7.08352257334623
-3.54405499625927
-7.91119903574404
-7.04785878730115
-0.140139720617201
-2.40179573935586
-2.81613315249605
-6.24330855042931
-3.58850458456935
-4.40026028187709
-4.55176124126351
-4.07619770849023
-3.21365115826575
-6.86879343227358
-3.26604742060828
-0.827464210424307
-7.64557941717173
-1.90332151902225
-4.15596797575072
-6.9412919298245
-4.91970583850389
-3.37695110389569
-6.21400083444014
-7.21318329905732
-6.34615677703327
-4.97963017068208
-9.25343016175223
-4.4398078531856
-5.87556722241478
-5.44170860884164
-5.07361159135689
-4.62624694632085
-6.37922207925173
-5.0612077438423
-5.03679768613753
-4.04622634227452
-5.75226466985797
-5.35464007283656
-4.76893216320531
-4.1758082583007
-5.65353817350084
-10.4746537043696
-5.65575134756571
-4.8696060204363
-4.19260500802143
-11.2528283170148
-3.96973911777723
-3.42787194487799
-4.76465939636607
-2.51125574234559
-6.38756169192793
-3.63953035494528
-5.70642418962169
-6.54150484338566
-3.92937041959519
-6.69971792929476
-5.33981162973188
-2.51533140402221
-3.57150347151599
-5.62042626962093
-5.78600240994328
-6.78501401395538
-3.68210570118026
-4.04660256833427
-4.88292839061186
-8.55460035980833
-8.60309032266734
-1.66249842518546
-5.87003327932009
-8.84058345536335
-7.63413537514509
-6.65506652458927
-5.21598713915664
-4.65349143654876
-9.60204669361408
-1.88119209879672
-5.01785078772522
-7.26807057099181
-5.50276555056199
-3.64334908821695
-5.50494321487181
-3.80543940531729
-6.3116662750277
-8.37736078286965
-7.78005673609833
-4.72519966761709
-9.94771406382382
-7.56851836851293
-8.08659819269867
-8.06121434895252
-11.2266480231919
-12.2165095509534
-8.03904542616008
-4.45901240692681
-4.16313724105247
-7.96729736973475
-5.25159627835894
-6.45149269592207
-6.28080468328397
-5.31784365753121
-7.73162317626551
-4.90628715569844
-3.16164472203856
-3.76712933474108
-6.40094962853132
-2.92158930923151
-3.64462372789642
-3.96443881240507
-5.21598713915664
-4.65349143654876
-9.60204669361408
-1.88119209879672
-1.85845595082724
-6.28283295585117
-7.29907835351794
-4.19776621976244
-5.41152946728305
-4.91238704679055
-7.16005095796149
-5.74730454953481
-7.10590763957919
-7.38510676519604
-7.47038711202814
-6.21462684485861
-6.51726712940484
-4.86619025587894
-5.25710941082637
-3.38674601996021
-0.591704072952904
-5.51584207460869
-4.5989370940891
-5.76496353453681
-3.08836321412653
-3.46556461490515
-4.18907507502562
-5.77118739261031
-2.98373468999652
-6.22035005693795
-4.31296660870856
-5.96688811904941
-3.00272994718244
-7.56744175459566
-4.60803488564651
-3.16599517444435
-4.2091676721792
-5.59605896553475
-3.48898973098005
-1.53281484602796
-4.78382402056812
-5.6774035471315
-4.63975513500625
-9.92363494570239
-6.66157973349039
-9.70355216015932
-3.96641337051064
-6.63759692784205
-5.68898681224971
-6.47916434655015
-2.75435721786066
-5.2310624772301
-6.27645653630605
-7.19645668149543
-6.23569421888714
-2.81871326952321
-5.51236691938122
-6.66484886868178
-7.34523000282711
-5.31436099589106
1.08688323073391
-4.81088002858326
-1.56600711008013
-3.41110941380377
-5.52017160689395
-7.951558908317
-7.01695642405295
-4.26228093392644
-4.68607311442325
-2.61633327433548
-4.32630964693437
-7.40424545676861
-5.2913382733203
-5.43502810118413
-4.80794867636938
-2.61008832019928
-2.18521662318348
-3.82903348314863
-3.63271901289688
-5.49635647979018
-3.09697015688227
-3.93973256358948
-6.66639654522039
-5.83918823790717
-4.98572233879973
-9.41721903845854
-4.53290248595058
-4.09937072034536
-3.62302075211842
-7.6491262173506
-3.94862982517869
-6.6280814296429
-6.05737536775275
-6.42123542549507
-3.59820598979744
-7.50232309604936
-7.74226465696061
-6.47916434655015
-7.26437064874387
-4.39729525275722
-3.8329006904473
-5.9489027004915
-6.29822489751494
-6.66521888473891
-10.3267696341528
-5.46781832964904
-3.7246607165676
-3.80299190496844
-5.51302871633061
-6.64407611497112
-3.74165301083156
-6.04207338979759
-7.93539660795142
-3.55913155085685
-5.96266896244015
-6.52685352119065
-5.86447774603437
-4.81605171920528
-6.02657067720978
-7.11119573530035
-4.13885792511715
-5.30448075492072
-5.02607116569656
-6.53026338337476
-5.16210468967656
-5.74618217797374
-5.67357531546117
-3.20756042201939
-5.36560530978881
-5.47785641474218
-5.6077049005813
-5.90903678719021
-5.54626409908244
-6.26510624027818
-4.58456015603835
-2.93000594903037
-4.91325852515342
-4.81503120285667
-4.51162703726954
-4.16521569984795
-4.16521569984795
-4.55718650779519
-2.88837510940552
-2.63757897962151
-6.56833425072793
-2.62629635539507
-6.54248574775453
-3.13008073383747
-5.11069997596694
-6.15799370897853
-6.01795251283102
-5.65887898233649
-5.93755051738274
-5.38476437713992
-8.35631705001626
-3.53645544910345
-4.83242967274796
-6.94461873552394
-5.70950986614843
-7.37056985167385
-12.7718558823204
-5.64819510923816
-1.46210366092635
-5.23136757104475
-7.83303896474155
-5.02258678154818
-6.14061066276057
-6.13462489853284
-5.55626162868886
-4.78824749309483
-4.31379014708313
-3.04657911592384
-1.91512809062814
-2.04385010734351
-4.74548759953132
-4.81789756392058
-4.16521569984795
-4.16521569984795
-6.52702107171278
-6.39018149891647
-5.32188934207674
-5.49839140883027
-6.00471721415454
-5.3704019638619
-6.15469461395587
-6.83967365451543
-3.2111704678259
-4.80452710515331
-4.68474146369819
-6.29674356826695
-4.76367906332408
-4.80744990618091
-5.54461729938681
-6.39018149891647
-5.56751385162287
-5.32987501957399
-7.90787499593809
-8.1445211422957
-5.57484645653845
-5.81980541314807
-5.49839140883027
-8.31551702194269
-7.62400531885713
-2.39357615666277
-4.0233153870628
-3.33934662021623
-1.90894536040254
-6.99544484496808
-1.25461331476932
-4.68873215723955
-5.28375567824104
-6.27557937162132
-1.74156082532163
-6.08377468667818
-4.15780342748884
-3.60003543522025
-3.09813096101859
-9.74734136292271
-6.02265834581886
-10.7020881605171
-2.32247691288748
-7.61307528554263
-9.97885045730691
-6.80878763930086
-9.97485184155265
0.220843385065215
-5.40238817689578
0.220843385065215
-4.16996005619246
-3.92931017657514
-2.70150105077327
-5.12572604125336
-4.7609088576143
-5.98397600277627
-6.88035423723373
-3.06699603377233
-3.98125846827445
-5.25793179707682
-6.11184377136934
-4.84603422604605
-6.4237488988755
-6.77370255695863
-3.15938978181902
-7.20608459896301
-9.04871662163432
-5.18296281068489
-2.16404730807574
-3.95136201888811
-7.01412126103166
-2.70406927029989
-6.97096021990143
-10.1812174810968
-7.66767472329034
-3.09215437001266
-5.29486378974113
-6.52105576203785
-6.74019252616443
-0.922841620461918
-3.93788551787622
-5.54861975471062
-6.2265335572692
-6.7656580088028
-2.55631680294744
-5.86831345688484
-5.78480202577505
-6.13281955085679
-9.92137910132889
-9.17289692324487
-10.8370658856775
-8.62619850643348
-7.92744718007755
-8.32915438652599
-7.47579945338929
-4.37273822126599
-4.78126056320062
-5.44836527435727
-6.62208717120368
-6.22665792484101
-6.90075792243786
-5.26733260056787
-5.26020577216155
-8.63774130925533
-7.63549306361309
-6.27457182358571
-9.38440936147233
-6.88372886340163
-5.13630075517357
-1.54242835075815
-6.17653762543157
-4.97484376912176
-5.1695149001118
-4.61317239111852
-3.42596621067323
-2.98872731313226
-3.91162376171212
-5.30971062336809
-5.88797731740208
-4.8895479887512
-4.85761818891935
-8.94526416654609
-4.12794378626064
-0.176556745712126
-6.83187700447167
-7.5408415320074
-4.62215151636161
-2.73527704291666
-2.52266523154321
-4.5951012584345
-0.607011948094385
-3.76518521334735
-10.0817894852323
-5.24988544203179
-6.36774984807739
-12.62777153742
-4.92283048364065
-2.86570725209459
-2.23552528819969
-4.90434303054449
-5.83915242113383
-5.76718579717481
-6.19835378276497
-6.41190198718078
-7.26897399846366
-3.96521598982022
-6.11964800980156
-5.21317607278919
-0.484031769935004
-9.48432844517827
-8.76242562623069
-6.58488727202616
-3.66519111383451
-4.696112089439
-1.59252830432272
-6.47092453475205
-7.9616489638924
-5.95259855532986
-4.87432215934368
-6.3524788763482
-7.02910267711478
-5.03441082999288
-2.4097853113908
-5.83918823790717
-4.98572233879973
-9.41721903845854
-3.89009941869884
-9.11375411685424
-5.45812541366256
-2.889360812906
-3.3981976000464
-5.94672507085266
0.744729288819033
-2.97291357947425
-5.29770575302205
0.454552838877907
-2.95685670392815
-1.7057528042154
-7.39279334295979
-3.72305310822426
-3.80054006167954
-3.44752374369114
-6.90217257736396
-9.12771847349114
-7.27526878433259
-5.19448056993801
-3.08975436701597
-5.83918823790717
-6.3524788763482
-6.61928992410661
-9.41721903845854
-9.36128783935337
-1.4296421854396
-9.21289232874311
-7.20504577694071
-4.09663222774773
-4.40159813828184
-11.0354198842511
-5.91655477152559
-3.56170363342046
-5.47453664284526
-4.30973734916176
-5.49353715752908
-2.97451573724135
-5.08996716349148
-7.35082686587989
-4.72329861921026
-8.93957603575283
-7.43542580438258
-5.62114912294058
-3.48578819302267
-3.51167773230115
-3.49357432485534
-5.93418755763342
-4.14673192077246
-6.97461147621325
-2.48785138601285
-2.54821219702644
-3.029221092225
-8.80016618328771
-4.21673175777263
-7.18469812751455
-5.23249932542208
-5.79888029947063
-6.01484874007456
-6.99280349289274
-6.78953501484571
-7.18360169704714
-6.50073234785718
-5.99270082716017
-10.2667366747291
-5.93282174715992
-6.98057594069222
-4.445367024136
-4.68695839023716
-5.32255200234155
-8.77510146707986
-6.75820143464901
-5.91605521932882
-2.55256756338785
-7.24969525137277
-5.75070862819
-5.31327234841534
-3.92817050084285
0.09409541936429
-2.64501112842982
-3.30695927601621
-2.68385439330003
-4.81421263415095
-3.65034558593088
-5.52451887941841
-3.30297709880101
-9.96435788975872
-4.69329454737556
-4.31578778464132
-7.16760606210174
-7.43084759789318
-8.38520537329607
-5.2179813173748
-4.40947761171447
-4.01211075102546
-5.54958513489952
-5.96536490664263
-5.97474853642092
-3.11938228588275
-3.35901233026911
-4.98572233879973
-6.3524788763482
-6.61928992410661
-9.41721903845854
-3.20944720730712
-4.49424644645856
-6.56592971440963
-5.09495132974749
-5.90654350196285
-4.40367552469954
-4.35061062624158
-4.771814260573
-5.68333250602042
-6.57953617498997
-4.77619420334898
-6.22541597088674
-0.38389989599236
-2.42189468447128
-4.16129655465908
-3.95902772164014
-0.476517973363727
-7.89588601254672
-5.92195389733076
-7.99078916416124
-6.03583516843651
-4.55162461396133
-5.65966644801828
-7.50128080190632
-7.06697543286171
-5.60171402444422
-6.24958451923317
-6.86671703049341
-6.61560473517294
-4.09288729385314
-7.6196598028337
-6.90958207339191
-3.55293967562581
-6.56815115099705
-7.027385907794
-6.74738845134136
-6.87814310719623
-5.08945777310009
-2.27750166430945
-8.5931304636332
-8.43803743812883
-3.87190918787081
-7.43442217661547
-10.005148425682
0.765046239370084
-5.5893007173248
-1.92102789628911
-4.85631608909394
-6.04645565928337
-8.95908191934887
-9.18822593187646
-4.74714134113153
-1.6830924747031
-5.32619435149013
-3.77437790600664
-5.0974214171238
-6.34460191986476
-6.45634437605204
-6.90578815436335
-6.59680199769147
-3.25989432234433
-5.45535495994288
-6.52585679520594
-5.7970433850917
-5.77628226662991
-5.21625035064928
-3.93552882269106
-8.86762690885581
-7.44173153257588
-5.13677908716263
-2.65159788217063
-3.69207576672907
-5.11901099918251
-5.0961620727502
-6.21263877108118
-8.66626330355233
-2.8301149689345
-5.82941588420566
-7.30296121877568
-3.09907384807909
-0.780579502922141
-5.03550969326282
-10.2873558602119
-6.51366231870419
-7.30430852913799
-4.83599005491396
-7.03910184339569
-4.7746423338028
-6.75938908298516
-3.72425702267495
-3.41184336685461
-3.15867206783381
-4.46040396787544
-7.53862038957705
-5.16167750839158
-5.25248477079047
-6.08638004446112
-5.38545240115234
-5.82738610092845
-6.0194623080269
0.822734478385723
-5.93639178849956
-8.73055394989583
-2.62163221761249
-4.4824721881402
-7.84987221389745
-0.817130212619302
-2.5564019449223
-5.60174659654494
-8.26879342424352
-2.61638343946114
-9.00976014787115
-6.39190616196259
-2.02711175799519
-7.47407284384536
-2.8471806152898
-5.9297154805783
-7.03522317734231
-5.6198723180592
-2.37439204160996
-0.738121877739518
-4.98117831365852
-3.6986070814068
-1.48822143254846
-3.59003270031967
-3.10857826886184
-4.25007003994656
-6.7671735634745
-2.71969024835742
-6.75482618793873
-4.73835657099872
-5.95810141979275
-4.09720881302418
-4.90742520405114
-4.73288631398386
-3.35819793243418
-5.92226714424947
-6.08415710110407
-6.4782629036452
-4.40446288934487
-1.45117792631792
-7.65358446763978
-5.6367598461944
-5.10251716578147
-6.09517238994677
-2.36155487843471
-5.181377792844
-7.04717045633885
-5.76021433814353
-3.45836008452723
-2.58816368121283
-0.800405436657511
-6.77703245540844
-6.98422351696344
-3.55314096382186
-7.61104557659649
-6.867765071188
-2.69045985377638
-0.713517657009743
-2.80702002723749
-5.66091596215119
-3.4795864086148
-6.52135675496534
-4.68789148403966
-3.70704762676623
-5.65568939183367
-1.9078119886112
-6.15416400930102
-8.22156132540203
-8.79440710712451
-2.99942901490584
-4.77301292860609
-5.62040007052255
-4.62497627863502
-3.38927641844006
-6.99331295544276
-6.00956339300104
-4.95885705334831
-7.4965584837403
-5.21219712393989
-7.65668176114972
-0.276323894456231
0.499335641425113
-2.93810780547556
-2.36600020987878
-7.62058551654619
-9.62134522213151
-0.557925967406963
-5.0931144600424
-3.84953933808971
-6.55549620299864
-6.37279729904237
-6.42315873429759
-9.46501182548526
-4.4313785874718
-4.78610697240516
-9.17604872282599
-8.57883035750148
-5.92198758733507
-5.16532059429282
-4.85238626494086
-4.48368381242095
-5.26473020170537
-3.03332615464687
-9.51654638336435
-3.39725336745276
-2.66091956338536
-3.70682223240885
-4.74603204529537
-3.8716784136655
-5.49830338410689
1.91559329806372
-3.649295337992
-1.89100292348305
-0.98214499247468
-6.38917803666931
-6.26317940647915
1.0973065018719
-6.20667113901328
-5.03592305199173
-6.50558520648643
-3.12768803830417
-5.69287312450068
-1.62876643781711
-3.47019238709107
-0.0628601495005327
0.839390833789987
-3.26083986500727
-5.29120685397785
-0.0538877154463473
-9.89154059340298
-6.17247822067587
-9.35410493614867
-4.20624897547965
-5.42407954018337
-6.54218602721774
-5.56198721164963
-1.85215922697749
-2.30717466953544
-4.7845751149084
-5.01915013083259
-1.18817306213473
-5.03713166106102
-8.01704163936872
-7.00751253171112
-6.84382538301641
-8.97243215832223
-8.19052577576596
-5.70880554886422
-6.0637791681321
-7.61960281214854
-3.65137164081284
-4.04222818091771
-5.56645970651766
-5.69886504943442
-6.47322823178178
-4.18968813078449
-7.4524215159966
-1.78753353378339
-4.42305924888371
-4.4842597753633
-5.10251974105664
-5.91157864277648
-5.7931198054771
-5.52665318440721
-2.97280105527903
-5.35400156455014
-5.24438146261692
-1.33887139839247
-2.07879226499393
-3.68925576625376
-7.51506911323675
-6.93983244099299
-4.99679604173989
-9.18815328762343
-3.85927726726503
-6.88057459962691
-5.01103665472365
-4.13745388369651
-5.97649086679156
-6.82531382125833
-5.96142679666625
-7.90451015402552
-6.84056846446077
-3.58574053527836
-0.232035391697693
0.0754520929038325
-4.93891936391592
-4.82026436139054
-2.94664740215397
-5.78487705123626
-6.65157111142215
-10.8071411498758
-3.57267369920168
-7.11254248844191
-5.68182043699825
-11.1460450946727
-2.55940890609485
-6.59789876301194
-10.2206686554709
-6.7824520947416
-8.46837602070722
-8.05796386109012
-2.75327156599694
-6.89176253070234
-7.00343065705331
-9.00962805484667
-3.86113803846418
-5.45864051618073
-5.07223128512222
-2.9019874889784
-4.67598280428567
-1.00096008122478
-2.24659064499713
-2.72291795071849
-0.915849379228324
-2.51892536771402
-2.89606365957903
-1.97689920414028
-2.62874130380312
-6.81956685489045
-6.68712634129691
-3.19111912296554
-6.43775242916781
-4.52299387706423
-4.19604424281396
-4.89801206809424
-4.12995538716204
-7.002944899248
-3.4374215108215
-6.10817562293211
-5.23283705002416
-3.30449681103787
-5.48867042500036
-5.69000559663778
-2.99352771457515
-8.83122950932977
-5.78946032384944
-5.85853499697884
-4.25688585573579
-3.87642681222427
-3.17183846209778
-7.23112974747448
-7.65047642903206
-6.76438773808096
-7.61764418594021
-7.25384945845882
-4.44737371314572
-1.74408855497754
-4.25071516321921
-5.23115053916599
-3.68630727542999
-6.44514269119765
-3.7539171891513
-4.5363802047073
-0.375131361848152
-9.18616571403077
-8.15253653991525
-6.80260781900802
-5.41061522921509
-3.97179171198221
-6.47300378940393
-5.45778649817757
-4.88899210950916
-6.95855723391373
-11.0221968041268
-2.85096430566262
-2.47126706013858
-8.29156568365431
-9.82596686850533
-4.04172075806915
-4.41322241843665
-6.63234265399592
-5.27261905378511
0.35403913985458
-3.45102302233715
-4.7049943929186
-3.53643791724679
-4.07931386286628
-6.90150249151246
-5.45971949837249
0.00352190598554158
-6.21021219874491
-5.53244232808164
-5.4369237668242
-3.91801726926766
-5.27487037168001
-7.27736223388972
-2.95510174131893
-5.39596630493456
-5.37414579721561
-5.12260978437324
-6.21845065811512
-6.45294237000599
-5.31131223387271
-2.20339723094798
-4.96914798383661
-5.92181364941856
-3.11191987368915
-3.77383630445415
-8.2626261102331
-10.0503227751262
-1.62990529544666
-6.14236381437986
-6.06861363800105
-7.05368284950042
-7.04331200176869
-6.40487558952895
-10.295265537985
-5.19587143494754
-11.4540215046803
-5.3365155101169
-8.13012960508639
-6.24638913593648
-8.12023558018051
-8.40853547656666
-7.59116359690876
-7.7871442250218
-4.2941929539085
-3.4112240580121
-3.14318863499817
-3.02082567720508
-1.67615101789593
-6.4127060363758
-1.35797374808202
-1.986519803478
-0.700264945159227
-8.53328635022377
-3.98948396377019
-2.29197562474969
-3.83956066936016
-3.37645084685353
-5.69493354856929
-4.31270242266294
-4.02328554911554
-2.02020711501012
-4.82750489593645
-4.92190815577385
-1.62373360356238
-1.31853909091918
-5.59227097534467
-2.12316529810584
-7.23254214755912
-2.97737519764954
-4.6061945033395
-4.94965183684429
-3.09715300971015
-5.39369871342086
-1.15878910349024
-3.02525379118447
-4.78722220404102
-1.75599975917858
-4.37422842839886
-1.27020003956177
-6.1856777384509
-5.52654711710986
-8.65547886582719
-9.24305002376337
-8.21252228878162
-4.15366409395102
-6.72348570798275
-7.73395252978215
-4.47093172894567
-5.25942937536035
-4.25998481778519
-4.13309140590623
-4.89422398388115
-6.34983035837441
-4.0786123463831
-5.3807481976852
-5.98260991870475
-4.18489158199606
-1.59043372227943
-2.22243532561457
0.0425193824663273
-7.07702439851608
-7.0932192817569
-4.27995569196706
-5.95522572261021
-6.72914837994771
-3.73647605556032
-8.02722347166136
-5.45861433840808
-7.18539785584722
0.236392777641986
-2.29668531671587
-4.23175740487499
-4.0232501228145
-1.38077988222389
-5.51356476829554
-5.52859658226145
-7.18715148766384
-5.00731964358396
-9.55737476210709
-8.36146061572017
-2.73890421825506
-7.00440532468067
-6.67744824390642
-6.12617139974507
-5.10257063163809
-8.78422725186633
-7.4079504717766
-1.9192314529896
-3.0780006346401
-6.43788012500337
-2.56184443230563
-6.90877059771315
-5.07554700500264
-3.82591065788739
-5.32011644537791
-5.33033957958863
-3.00267040531567
-5.66917494287182
-3.96694913303
-2.49020736835027
-4.20679178067523
-0.683513184903861
-7.34303845345681
-3.86826396590762
-8.23980007796972
-4.28659993333581
-3.74148179529701
-2.81663029923906
-7.51062706899182
-4.78115273291088
-6.83214280956251
-5.77921682988156
-6.71289269257408
-2.67057099788475
-2.30677279418499
-5.76199103391002
-6.02503692162923
-1.30231314218568
-5.24248542810741
-6.24180880643166
-0.438743597528776
-7.94918000449188
-5.26589240724904
-9.56892356035225
-5.88564753468568
-6.58378905063396
-7.20511061535139
-1.91755202060754
-3.85386277537123
-3.56961999045909
-3.72690623874706
-4.78324585905435
-9.55292901994217
-4.76051381798424
-8.13178398286024
-4.93113168238132
-4.22155836961464
-5.59521738357084
-5.37295225994431
-1.72331100164345
-7.37213645829004
-5.58507918861192
-5.93516346932189
-4.16083736734343
-4.05002918130112
-6.03308136720035
-8.32840005281479
-3.63299537450285
-5.89443366794484
-4.80776131703976
-5.91459611063616
-5.76185889638657
-5.9792380733122
-5.49520107731902
-8.28256788933643
-4.9015915389185
-5.04256591781942
-4.66223378100123
-7.02217633008812
-6.15563701974294
-3.21940879761576
-7.09132137093294
-2.87543681308468
-1.9837714616812
-5.8346621235874
-7.56303953070894
-4.1998269040918
-1.38950620034606
-5.25319549315239
-8.36129487786821
-4.84067442803584
-5.19387893105817
-8.80864453540362
-4.02672463796818
-4.57233453366035
-1.95919525866666
1.20731103205083
-4.06267373385987
-7.43373345341819
-7.63132683304814
-3.89390719176414
-0.748513333906292
-2.37582461668926
-4.868078637663
-7.60034010480033
-4.8889128223838
-6.39571946075395
-5.60928776854631
-8.42137413225439
-7.40872269968036
-5.30466046008483
-3.54049679158536
-3.11778289544546
-3.01486002972961
-8.44262307720464
-9.6795819231675
-4.55365920665561
-1.38664130298934
-4.4665311476444
-5.25563924626357
-5.62162980977174
-2.57608786702264
-0.512379148194617
-5.57625812998013
-10.0530871676396
-1.08153843803383
-5.08512249703073
-7.79754261899192
-5.96002171201052
-4.89470564638379
-2.07109648956505
-8.67295596129544
-5.54571433086596
-2.57980058039915
-8.89353196489287
-2.91061222061979
-7.68510706341339
-5.99444195417464
-7.18590787314186
-4.16712705267695
-4.44902264363878
-4.463558043968
-2.22160568109764
-7.05951607651675
-6.85231820358364
-5.37346977963387
-6.33613092234921
-6.36947716509204
-3.902179166423
-7.34866862896902
-3.10111105893008
-4.97566337702631
-2.10482932498659
-7.36034692048937
-6.18530226593471
-4.00472841834936
-5.60952849134537
-4.58994634515644
-4.27149594477013
-8.39258802905063
-8.38636137150017
-2.73387579290636
-5.32623318651948
-10.4341208292205
-10.5373167311255
-11.1343610349746
-11.108223049695
-5.80904502561765
-2.98971663212418
-3.45084254564528
-2.18212990073293
-6.94566910607537
-8.09489941808229
-4.91833109780826
-5.43208999711251
-6.69053367080669
-4.15691449674093
-5.16706212399415
-3.98715558417561
-0.555329815981178
-3.54915316136156
-6.89832049592098
-6.68866992614122
-9.50386827217683
-3.06900763897188
0.0233655894877538
-3.32715057735895
-0.257974925719865
3.13408387016803
-6.68220809465179
-6.83464670319089
-7.83070179855897
-7.17300734605515
-8.76914541998735
-7.09804917660384
-6.58386698234979
-7.23633915696475
-6.54816808855
-10.0756696874191
-5.98989228611501
-4.70443324721318
-7.1373781537497
-4.51514775964857
-5.83379582174693
-1.84543968076811
-6.55171347985956
-11.6888211901428
-6.80495304811985
-1.88436399915278
-2.90821753822218
-3.6211590641316
-3.26799549646253
-4.73019883831392
-5.51927672111246
-3.82788527676436
-4.53454622338843
-2.79035797864703
-3.52296739613585
-2.19604997031376
-3.12225612660148
-4.59631175441282
-0.839184494256389
-3.04558424269399
-3.84825291288376
-0.78961162024841
-4.46332747411515
-5.82203664459901
-3.93907142321692
-1.81090369468241
-1.21247151007906
-4.40820762872266
-5.46774860832052
-4.44074058037366
-5.68411300023965
-4.08257880994214
-7.16038400459773
-8.50507012480927
-5.16335977507641
-4.54700036764083
-6.97718812858647
-5.84705159918506
-5.0413401459226
-7.94199098361453
-10.2700652306399
2.56735810838451
-8.69454454858547
-4.14427243474384
-6.84320484394376
-4.59251769079909
-6.09880161552257
-4.01452055106395
-3.33929334744313
-7.25358804568551
-2.86139615548381
-5.39429900935923
-4.94231515905173
-6.47553295535716
-6.15586706266579
-7.6554460137869
-5.92776766361125
-7.30296121877568
-8.20798905596553
-4.7684047473345
-3.45444301085188
-6.53239579007453
-2.98944929355036
-2.29994236524919
-5.69950847050398
-5.24120896955262
-8.83529500939428
-7.01815874127155
-8.66627364147461
-6.17391523925264
-6.22210004244197
-9.27889472692842
-3.28117563767489
-8.41007970303975
-8.14321383432926
-5.99905605397406
-3.81272982678658
-4.61659426229273
-4.4085010825647
-3.63664093648805
-3.86123144380835
-3.20463114978018
-2.14382216953579
-8.48534946102703
-1.2495425275203
-4.74617694172704
-6.16443069560025
-1.12657176373576
-6.05453114105205
-2.29219123895987
-6.95660034316036
-7.36338675371533
-9.90289021953487
-5.50751051534529
-4.52676790774649
-5.0781625999586
-4.01377351097412
-5.99636511246754
-2.31939389543367
-5.20210695686262
-2.63282243712511
-5.23703097828244
-4.61374581507026
-8.31866016364285
-3.88600354805086
-3.93905274533636
-1.94968105317848
-6.42840043846531
-3.47031781641088
-3.3953365487894
-5.36696788109039
-5.30346630002929
-4.24795301567835
-3.28706322125983
-5.16544480345713
-6.90847009034644
-8.55158048996554
-1.61226405533407
-3.71278651322953
-4.17521071040987
-6.75523950679377
-3.47758760605714
-5.21785830289657
-3.45840657702794
-5.7446095875646
-7.38672759867621
-7.48231833553297
-4.48649401663898
-4.76102984746899
-7.14076910257163
-6.47126966008806
-5.72429453468449
-4.83800027292474
-4.17180573365425
-6.37991595381493
-6.80943520908772
-3.97446080705079
-4.73488693065031
-3.43096873900361
-4.10461885587751
-4.92098934049072
-2.4444615197295
-6.78228207715479
-5.77912880922656
-5.99003513088365
-4.28887035697764
-5.16703610382888
-3.98221290005377
-6.18044719459194
-6.90080185791909
-8.09739462565557
-6.65783328247999
-5.49079095262977
-0.435743041265604
-4.38347971522443
-2.26587275520798
-6.83918145098423
-5.87288910816432
-8.85602030719986
-7.07778164279015
-5.65370278260976
-8.96092350887725
-6.13164796934054
-1.48167483250212
-0.314191856451545
-2.03790131496767
-5.83415173910063
-2.79116662727923
-3.92340744815632
-3.42521305639806
-4.52093863892074
-3.79561573848418
-3.95215779077868
-4.72487255584245
-3.90949173983415
-6.26827307782475
-3.90435084977756
-3.57169889442024
-1.82023995854629
-7.23424925643966
-8.29597888253469
-7.81350634846981
-4.25130116373845
-4.81248479812313
-7.94968575641385
-5.11820011259729
0.318336764271962
-4.98175592041684
-5.63830703723901
-4.01806622137634
-4.27490404693107
-2.5331925577158
-5.43695952111377
-5.20102057660718
-4.10602694342621
-5.84180395246351
-1.88714391728378
-2.21917572948012
-7.16082962054407
-7.59172432826197
-5.57527701296827
-5.68871409422993
-6.82087911237208
-4.18691256692895
-6.58641934104492
-2.95837559287042
-6.64820862903601
-7.06464136357427
-3.68412751824545
-7.16154793736229
-5.48952032177048
-4.80618989540811
-5.36437175006677
-5.56027062375242
-3.87744026794188
-6.2223303391497
-6.17833228873368
-0.13752254859339
-5.71681328293626
-6.09039780863657
-2.80537139436981
2.77352607356994
-4.31517865535404
-4.19590177690841
-4.61753524968726
-4.50989803328383
-2.56050156177914
-2.55723913513621
-4.00224441816003
-6.21906788465097
-7.76467210436531
-4.5704950075881
-3.34367895085407
-5.03240197431348
-5.76052205696905
-6.56159480697408
-5.89798100813168
-3.51724839443008
-2.90831197755151
-6.11483111468916
-6.81812308330708
-5.70471581695322
-4.62235175602174
-4.67342659244306
-9.10105307236481
-5.11782114313451
-4.64962107255793
-5.86100151435747
-10.7162990401468
-8.54698012810668
-5.32676037756572
-6.65194647455473
-3.95357080273726
-4.28444769706535
-7.35907483123227
-3.85717431296104
-2.17879011977994
-4.60770347389082
-6.19791994417682
-5.32988883335917
-4.3475772513902
-4.74416171063563
-4.80230908439235
-3.67503465352284
-5.52613869892527
-4.67001443268503
-7.70756473138923
-4.72784461622272
-9.16495523687044
-6.33275464645952
-3.24159100118339
-5.705354467273
-10.0348005952571
-4.55186353291076
-5.50361697895028
-3.02960412535609
-4.53623415806781
-5.04019224969723
-6.556337365306
-6.66121146606996
-6.63636829521381
-2.74989848621667
-3.62600822150799
-2.6001348374848
-5.1291528454222
-6.35618401040095
-5.48607901449462
-1.05559149938448
-5.24461645503459
-4.62704303119988
-5.83111462291145
-4.4916387321669
-4.79566675490409
-6.02674475606712
-5.08135804324162
-7.89617143052457
-6.13564148819751
-7.00522401349733
-3.82363882194575
-9.30591026605458
-9.88513204839462
-9.92583901131941
-9.43501421390147
-3.98174590556195
-6.60039271990341
-3.79191353371442
-7.00476807010994
-10.9725436922164
-11.608000734266
-5.21231585696038
-5.76774355332353
-6.39894943497761
-2.82807974919966
-5.46786738769707
-5.23209192994523
-2.90237412940484
-2.76091866705322
-5.9057535089501
-5.58722739539721
-7.06247043071254
-1.92186247665197
-2.55590381081615
-3.68468776643545
-5.16551317637191
-4.30868002977347
-5.35665529554556
-5.85539346567741
-8.92817013660559
-3.20037865447274
-4.4847785039901
-2.28371756589163
-5.3148461988473
-3.68679708481629
-7.62863581616162
-2.69665786320439
-5.48800560104316
-3.19356366853331
-3.89042214641417
-2.99551314023442
-6.86557922670513
-4.10686173881452
-3.91438178511449
-3.9594582782705
-7.14648107272164
-1.69434964966767
-2.70436193654786
-8.20239337938706
-5.37612079212726
-5.08722980015875
-7.59193997234324
-4.76574854129705
-9.58626092929855
-6.77565695692749
-3.96615432567712
-5.79360687577447
-7.12763222529008
-6.01325519620311
-3.02455221407019
-3.32889723928539
-1.87023741144326
-5.4623896250527
-1.38510359701409
-4.22544892916374
-11.1673630867511
-4.18649467127868
-4.15720844286575
-3.90397044232528
-4.5513029284196
-7.50299080301445
-6.44163647253165
-6.44443502170069
-2.84306469154822
-4.22809757638905
-10.3545306037748
-3.72339402943581
-5.06612452992927
-6.79666644105456
-4.21914762696413
-5.68071918313163
-2.73304477005479
1.30137045822661
-5.42958445659725
-7.26402709215896
-6.32823591295765
-4.59054327859199
0.95470530010608
-3.54463708189844
-12.2177465076964
-5.15858563351044
-5.46630619938407
-6.93795537082094
-10.4540992091989
-6.13629401315848
-3.80457955536663
-5.01001434014419
-3.92444488183374
-3.93467669922501
-2.44663738800462
-3.86475603721827
-1.67605000323839
-3.54061098330182
-2.28664088364857
-3.06813466236309
-7.32896245263234
-5.80925517696085
-1.34185339372949
-7.20243933542834
-5.19445258921783
-5.33763228753379
-0.418094848540324
-8.64673526913637
-11.229606542443
-9.07104875153065
-5.2116020271966
-10.1794412034656
-3.47463294989573
-5.762605329318
-7.41015583653983
-6.54836574660883
-4.32183993500499
-7.1840015338022
-8.2252336893316
-7.31136649183063
-6.6967615602225
-5.98410469408751
-3.59598815029891
-4.84598595732747
-6.09017302812194
-9.78872459896195
-3.29767534484958
-4.38058485543141
-11.8339929613265
-3.07760680563602
-5.42334992583787
-5.92600171283836
-6.01777430652237
-6.53320617092855
-2.54584617560054
-7.04412603471869
-5.5767475235281
-7.59726938377963
-10.7100367711204
-2.72428048548802
-6.23244281771694
-3.64350900465184
-4.89900935127327
-4.57470952273716
-4.77746948585538
-4.61919412749028
-3.23554346537072
-3.75928367425738
-9.36128783935337
-4.58876816210623
-0.10900135807586
-5.08209474690595
-2.62422654258552
-5.25825175549696
-5.27833812009895
-7.67736010548012
-4.24734796362027
-3.53754032176964
-1.68771284117996
-2.57455582303578
-6.59398523716122
-7.968636844903
-9.19332029518071
-11.5830415737085
-8.04546142617508
-6.36158400519192
-4.53632146448446
-8.38984280147544
-7.32678155487671
-2.29847533555994
-1.87218590140441
-7.214482443578
-2.8188179500315
-3.32655280880924
-4.57267955539441
-6.92432801460642
-5.49226946839185
-4.82038426958973
-4.74394161540996
-7.29570552376964
-1.20522446081855
-5.36778960681072
-11.0354198842511
-5.91655477152559
-3.56170363342046
-5.47453664284526
-4.30973734916176
-5.49353715752908
-3.68885733391195
2.1389139774479
-6.53871143297826
-4.42679704784231
-4.1674370894512
-3.43067657624247
-4.14190223174125
-1.39140318046161
-5.10100333737093
-6.46574931402268
-7.16936694823061
-3.41819067315498
-6.24290832979016
-5.15709647725483
-7.9748151547373
-4.31495624841492
-3.79996664146901
-2.60290543555559
-3.73493417626618
-9.66189761654417
-6.92096292173543
-5.54667627241743
-3.67850046610208
-5.94774587473307
-6.28586006227302
-7.87851822077409
-7.49192274744595
-7.99966699804764
-4.91463610622336
-6.468980201023
-4.11078841731427
-7.16494745364711
-6.20083120077014
-6.90960412510318
-2.5586046417748
-5.12212800888215
-4.63936917927315
-6.25088528618095
-5.49123402880588
-6.7571877240652
-5.58304645978326
-8.02287317091636
-6.0979505432911
-4.87163035186238
-6.11763972640383
-7.50174973792117
-3.52423342845972
-1.57994420052231
-6.22729286168195
-6.91217970129394
-7.76209876232084
-4.38653679011581
-5.08372143182046
-6.44593935355701
-3.76238775587376
-6.72383375901926
-4.95029147111973
-6.53920479382414
-6.73460197149295
-5.36457132259101
-5.13653105462699
-7.10022632445289
-5.83427887330909
-6.23532228874684
-3.93803443748086
-6.10810132321062
-5.12062803828558
-7.58012837066453
-3.08804837990441
-6.54021894291847
-5.69579775547761
-7.00893536759491
-8.42752828808142
-2.07404627533168
-6.71081189534223
-6.71081189534223
-5.6192619920065
-9.06496697444587
-4.17343982132728
-6.87717394662865
-2.09521921171867
-5.93960768499917
-5.78022286998957
-4.93693234846416
-3.00862456564046
-4.54016727678098
-3.01576081433973
-7.41574798326429
-4.70520586120693
-7.38522120395334
-3.76132073415372
-5.12946026891169
-6.39947032989605
-6.66056823750447
-8.21397392645742
-7.3036228476435
-7.38726853150931
-7.48922265465055
-3.64438592224631
-8.84127391607302
-3.20144657445077
-4.01864461187846
-4.97174829062978
-4.08807600215512
-3.74652664148837
-3.75365073862164
-5.27960971471107
-3.99826278953452
-6.28550163022674
-8.25825173660081
-7.11228305475255
-4.99382611969571
-6.46000374801127
-3.7070260862046
-5.42569470958737
-3.69917819445949
-3.05840370234854
-6.42669530753928
-1.77924848596073
-5.46202658822112
-3.21111107826967
-3.56439671483555
-2.91625532382017
-3.02154617873254
-4.39663000657578
-5.88322236571263
-5.72337082471909
-6.4973001431248
-6.59670046237938
-5.45194847171781
-7.06126641285237
-4.61717489128161
-5.00687536880492
-8.77727324503247
-5.11170352227219
-5.65076932227309
-4.39352858829689
-8.33507478219213
-4.33646109958872
0.0851688342517874
-4.80753987652488
-3.84693250434762
-6.52750218390853
-9.22087119190826
-9.07508300971405
-5.29880776698042
-7.13109429477769
-5.69946085392542
-6.32528971214162
-4.35070746361495
-3.73452060368977
-9.38094442634831
-6.83335791918282
-5.7104686114366
-5.43027248858533
-5.39527257206289
-4.28799925617166
-3.69509931446569
-4.273837607704
-5.64596363024347
-8.26084319049076
-8.47108654582184
-9.96340748427958
-8.04729820337615
-2.6526545446459
-4.27383797853596
-6.85745689971638
-4.60687538257863
-6.14083944232592
-6.58037854385765
-7.14758119219244
-4.8411905755758
-6.26945683438638
-5.43051781568924
-4.14437428988961
-3.77013136060374
-5.61315049607433
-10.2674252824681
-2.32963957930974
-3.33044893043408
-4.67069205305488
-2.28976148745626
-5.82789823989361
-6.51406002754205
-6.25415816030551
-4.17697692435784
-5.92815984708805
-5.29001105306026
-5.63767051427942
-4.936853723527
-6.87980366468272
-6.40671039486339
-7.86182464460001
-8.14831106458382
-5.86375578286514
-3.94441277219214
-6.86417401127112
-8.65918028099019
-7.72444948342721
-5.13542454739295
-7.21315535397127
-4.96912646964175
-7.06858657161918
-6.7948364948445
-6.96990753284722
-7.80893913094026
-8.17663984388523
-3.8672585339792
-5.92291903054552
-6.29555867075285
-5.37226578488313
-3.18875798435402
-5.19809331370322
-4.94914133096575
-2.27955690323629
-5.73941845782583
-8.13753081383239
-0.0533142215692776
-10.4534526844563
-6.75943466424631
-3.13628173835943
-4.24919640084312
-3.79589306110264
-5.16946578988871
-3.68616595200272
-5.7944986687632
-4.15004769600811
-3.56295760546282
-3.50646322912391
-1.15978226115977
-3.57571014061196
-4.58989485926075
-3.74056163260515
-3.61257499166243
-6.21519883536257
-5.96423519525398
-8.94795036877374
-8.67415447269978
-7.31604244295138
-7.3348396255525
-4.90915050837924
-7.50913991881293
-6.41154017040873
-5.19964285732083
-5.57237924281512
-7.24380340045358
-2.99876135760643
-1.1979993526295
-8.4218107800124
-5.29356361492228
-4.7919674099034
-9.08144515666965
-5.47892462221114
-7.69135657023522
-7.52330163644859
-2.75511277887611
-4.4484885549364
-3.10789789208486
-4.79265595460761
-2.63426527814264
-5.49281087286596
-6.96351518757153
-5.20209088156544
-4.40733113294196
-10.3649385305307
-2.9032062679878
-2.08466069312557
-7.33445338215865
-1.26512936333945
-5.42211005642965
-6.1527684266325
-5.96743542112012
-6.44460621064613
-2.64628800330135
-4.79047243316905
-5.99550906523909
-4.70191577251688
-5.57648364411893
-8.1841241694016
-3.81087537982397
-7.17317443218631
-4.3844573841012
-6.76487542038329
-4.16837752013149
-5.71728388262071
-8.29158281902277
-7.6320005781796
-6.24085697810857
-6.73487460531145
-6.32145505502341
-4.97576386191113
-8.27845872708567
-4.6436573893692
-8.80772195550269
-6.19032520215229
-5.66185165852654
-7.33714492453384
-4.91552700086788
-4.20300739098428
-4.95419005451934
-1.36112724112928
-2.83639857386852
-3.44039329371614
-6.94129201039628
-4.12752200153443
-4.04541658399079
-3.47723490836435
-2.86844409322513
-2.84700855874553
2.3235666006775
-8.11251994701191
-4.95132132587338
-7.74419709587983
-4.91733639604205
-2.86202508521534
-3.76288237601432
-2.12144399394902
-3.62541376693815
-4.25939109754747
-5.81152326750606
-4.14993005249336
-7.46435280196728
-6.85563964958103
-2.76185526536373
-4.4532115799495
-3.96077648327519
-5.49281570508397
-6.48694435622935
-6.80595433310387
-6.30538361140345
-9.29581334820331
-4.85234686397699
-5.58304187060541
-4.92072575652337
-2.58965725304392
-5.65192034307832
-4.82406738619571
-9.41111987140442
-6.7604639206181
-4.08179943284783
-3.8475783693843
-4.5151948595385
-5.45524334237759
-8.13924744527475
-0.0116437129672603
-5.05861332977126
-2.58096253120199
-6.2306125859543
-5.69977255724884
-7.10976199217471
-5.8745698986956
-6.00410356614534
-3.99050452248588
-4.21561944523023
-10.2589896438722
-4.71589938600121
-4.03497664389104
-5.964259100463
-5.84897522754491
-4.69817078958001
-5.37490428578901
-3.19163089569828
-2.41858926235325
-2.89504583571403
-5.75532618944197
-7.7696314338824
-11.4463161661079
-11.7918712558882
-6.16554213667586
-1.19625294364675
-6.63517476037838
-8.72810909478599
-4.27598498972627
-4.56697828460511
-7.12302215813956
-4.70766915465327
-7.24335316415642
-6.39095087988731
-6.0379004840747
-3.1535699919569
-8.19602207032093
-6.55073931372901
-4.20816242168791
-2.79093997413582
-3.49881294236456
-4.43822657389427
-6.84435580970304
-3.19061913470509
-7.22130906654938
-9.98787367521416
-4.29916631345061
-5.39979864441374
-0.762676877399727
-6.61229176591992
-2.43655069157459
-1.27554146034772
-3.55087661123858
-8.93585534439732
-9.71896218477691
-1.7029562024689
0.945872460162835
-5.57896537060882
-3.59891661457898
-6.52621830688466
-10.605410328526
-7.8408900198572
-5.58192754270239
-3.32499009061303
-3.11284966300804
-4.21806746795626
-4.48434797175653
-7.18898297564285
-5.78111745851337
-6.2196598070573
-3.2450363803768
-3.73815815653651
-5.86347843310468
-6.50388060983329
-3.34977672388869
-5.73428958923116
-7.85871734067236
-5.12113963970073
-6.73978870972356
-6.11744770812582
-10.3748574963197
-6.73017271851266
-2.90955181225126
-5.85985075976906
-2.62424605596074
-5.21259636656986
-6.25178352564924
-7.29547644838221
-3.52774163675068
-9.44650889737581
-10.4144960860148
-7.31793481067174
-5.97666990957517
-5.63114235897292
-6.24989970710554
-7.22002262349728
-8.13076246836056
-8.99287787089055
-5.5931335860165
-9.267991967078
-9.78407701875635
-5.2131825494242
-3.94917196607085
-5.10605210263479
-6.80836551236278
-4.031166208034
-4.59088013937382
-5.61576658513669
-8.82211256154204
-7.59257224051893
-9.90287782968873
-8.13262215592254
-7.21551650121566
-3.81052180757836
-4.70384340404816
-5.7882184460369
-5.5804505328679
-4.53153244189266
-3.87702587978025
-7.15051956959155
-4.43082931191158
-7.16476198903999
-2.59465150317229
-7.39839115600168
-6.85627396590425
-7.78355909598801
-5.96655997583524
-8.03570951737565
-3.8675289946333
-7.78503138077536
-4.4545349570763
-2.64945257712644
-3.11169246557327
-3.34695642403387
-4.82865845778752
-2.28561755518504
-6.80939150094213
-4.9378581888068
-5.16186285109739
-4.55314266309341
-3.72343296493389
-2.33052113901898
-6.87133603891504
-2.3733465356928
-5.81856781202796
-4.98501317762866
-5.29182658423596
-5.02531013464039
-5.10959788311142
-3.20321484278846
-4.23500643779095
-6.9471242103686
-4.00407077772182
-1.54181709952399
-4.33996579155632
-5.47752026431819
-4.80682695492873
-4.8092076972669
-1.68301692497093
-2.00488312312048
-5.18471799128525
-3.65963508656189
-2.24873381166445
-6.39964558785898
-4.03329950835595
-7.64203930768953
-3.76015071359729
-7.40133278631225
-3.43726412587467
-6.4374269632084
-6.03170067275566
-5.16174582657722
-3.7839699284242
-1.29586595224437
-5.35087106519378
-4.09630539073117
-5.54436924316525
-5.66364202170867
-6.06088803809034
-8.48186842049515
-5.02341425552652
-2.67399250502554
-3.48947153720412
-5.8365310761037
-2.46561246620338
-8.04875772706193
-7.75965938741073
-6.49570233720432
-1.8802258839647
-3.76664836494159
-5.74137395847647
-4.12442183449081
-7.42761008693792
-4.74220916404497
-3.29731790998047
-4.1416140572643
-6.0848904485051
-7.60903930190326
-8.64330744979664
-7.20588005968212
-5.32405050392171
-7.15068159762132
-3.40230494050788
-5.34406981497774
-4.21286322713559
-5.17015982613755
-7.41866893455369
-9.48160116269116
-3.74419716640821
-5.16921335617563
-7.47052285027508
-6.28644700722061
-4.00282047406819
-4.80908134368928
-4.91574186150036
-5.47822227883313
-6.77666078144409
-5.75581913515781
-5.93643544894582
-4.895323273375
-5.24393923520437
-5.56065753876702
-3.67134687219593
-6.5664566302634
-7.45944027293352
-8.88169066910616
-4.8246826376587
-4.66212837902827
-9.61927326515263
-6.05228553242889
-8.70570871486765
-4.52340729541369
-4.21862266629651
-3.21003694204619
-6.28604179943952
-6.35541231195759
-7.97945785131379
-6.17664209585476
-5.8682917635171
-4.57233935638396
-8.85160952531998
-2.56281533037925
-5.7409507512589
-2.61613540485871
-2.89466036320261
-6.83962241340387
-5.83087885462045
-7.58812711866241
-5.42901446540756
-5.22989474408471
-7.17102161380093
-5.93365073955472
-7.3391916294025
-8.68903305590297
-8.21088073435364
-6.01640567583164
-2.63053567107736
-1.68965764747891
-6.5849416080919
-4.2296457397509
-5.51714279208896
-6.48383857943391
-4.33412595106248
-4.91503766608106
-7.23980481374675
-5.77496757098754
-5.26515446096699
-5.2280706724185
-7.24129200111778
-3.50930464202239
-7.74093588703363
-4.03361516759251
-7.54238466818732
-1.09681656276922
-1.48359634951905
-4.19818981720975
-8.87688229017765
-5.39338792159166
-6.89248425368887
-5.39426477437393
-6.49690079814209
-6.17522742936763
-5.65437014627672
-5.68909720564209
-6.34603115021806
-6.56848165153053
-5.64443966721685
-3.42653087676275
-3.71789798842261
-6.79717356680838
-4.40883018287632
-1.90561766245292
-3.5933397157314
-11.2175530948093
-6.78396175104818
-6.66922300846209
-3.89807923592633
-4.56629771775998
-7.22859186803659
-5.39853253919569
-8.53406764301847
-7.51644311903322
-8.57239310222752
-5.20535015367637
-4.97927655513076
-5.08036501069375
-10.1444701600961
-2.81442174586163
-7.14818537495811
-6.00157808651375
-9.26338360800502
-3.96521114842148
-3.0514811539009
-6.67810673934826
-3.35155450026771
-3.11654785284627
-3.47208241827976
-9.50925392340529
-8.84443370912219
-5.71348600583947
-4.21124829043556
-4.0397768933277
-6.16373976872025
-8.14113408790526
-4.91254646131676
-9.55292965552047
-2.72340686941824
-4.48872122014406
-5.03598329007015
-4.72862031629394
-4.64903448052122
-6.71930667481642
-3.19498527514722
-9.89931395022762
-12.1581116917044
-12.6537370012652
-7.43939794215666
-2.68399542903004
-4.74405918714122
-3.00694593102086
-5.17726597621616
-2.46502271883805
-6.20177077421853
-7.66550855640703
-3.88516526723218
-10.6522168352203
-5.3610579323328
-4.63302229953628
-6.99040044498583
-4.46407807389903
-6.16755969448169
-5.80384999553592
-8.37011575671912
-6.56556099135554
-2.6150106605185
-7.20767755793921
-3.31309228077494
-4.41708556459267
-4.39496418125896
-5.9460716016171
-5.32431624740189
-10.8658257688917
-3.30948326009723
-3.7717233757449
-6.46871836648428
-5.97926169434067
-7.64408014967495
-7.85390085008334
-3.21695501946429
-6.08677244823361
-5.61262622371558
-2.48788986474197
-7.29391084468334
-11.6074728962856
-5.44100437883766
-8.82436096910406
-3.14630934882228
-1.99834011307246
-4.21142096781967
-4.11225680516735
-5.96937954242875
-3.09460455617584
-1.6995207955172
-5.03771836485827
-5.44727691402981
-1.90649714831394
-1.72073617306558
-4.02968719177949
-8.88353986734296
-4.33430027054602
-7.36024866940746
-6.11092977498006
-7.35103822118635
-6.25090910003788
-5.49683695757339
-8.26525774241448
-6.94626942220645
-2.83303374626654
-8.94283362101625
-6.0965942317166
-2.26985873105509
-6.19663458290974
-6.34686224811035
-1.47866192296242
-1.63870740550047
-2.29339186028688
-5.55687191879906
-9.23136789305592
-8.60899703688986
-7.63937047837935
-7.57239780149816
-7.49884627254635
-5.23347669197766
-7.60018125018983
-4.77740362068727
-8.56935367183136
-6.20577015106745
-5.23004477804479
-5.07871853870075
-4.55452405631825
-2.03895324833381
-5.95577435941591
-9.48275474062961
-6.39425808400321
-5.48459235869306
-6.38790201296669
-2.7483351323582
-4.36989586160561
-5.9562940398319
-2.30591001562991
-2.18379778947463
-0.83092604664377
-1.86327568813014
-2.55659630867758
-5.02211595229111
-5.12384880140843
-4.69030926375463
-5.83803313945459
-5.38449559681427
-2.53038039418991
-4.87823552554612
-8.36701671778401
-9.00318180196294
-5.19679445222319
-3.76236835218683
-7.37769505956196
-8.05255990531282
-6.03055431549354
-2.18366292312112
-5.2284033137775
0.0565280578432469
-4.40466647308636
-4.18758538662041
-5.22626841162814
-6.13226980350075
-4.41517382858712
-0.298717755028807
-5.32092676413197
-4.67213854940126
-5.51167849417137
-6.45152298068823
-7.06986364698652
-7.37686831128846
-7.79419830590727
-6.37404808227717
-1.63707360530372
-8.17184040720451
-8.04498157839722
-3.17603236004165
-3.83955381739727
-8.14898597678812
-7.57466823088644
-7.29116242647409
-5.27131622995356
-4.69621257166534
-3.93811918517994
-3.7231939327951
-6.22399343807492
-6.11752896305714
-6.75888860334246
-4.05174652808168
-4.65998422862237
-5.41165942493329
-5.13130749040168
-1.32217256953506
-4.08503930082226
-4.86817399866016
-3.45944611323296
-6.99991298021354
-6.02733084776834
-6.4786377052038
-3.69439606802181
-7.01415600934715
-7.06278590892284
-4.70359458633785
-4.30115827223356
-5.45789071854912
-7.26338808155263
-6.35376490676364
-5.482035757905
-2.57457713471929
-3.35721405119243
-1.18786015014798
-5.71899093416577
-2.69472759459159
-6.31345114749177
-5.4496446023825
-5.99239649895768
-4.38596193990222
-6.14081662792799
-6.09918516803174
-8.11552826972678
-4.56966617094829
-2.95226633098104
-2.53799763193081
-5.7470326463044
-5.06624301674947
-6.84436446973773
-3.43552037332141
-6.08846924129754
-6.27374300818462
-6.42675982243393
-6.18778427830704
-3.5807351142442
-3.78424982489824
-2.7628778902662
-3.31157691855728
-4.76079100721287
-7.21174668994077
-5.31298320549463
-10.2496749684107
-6.3164917703788
-5.39133649300372
-5.8336604157002
-5.22774305282921
-5.97160554681517
-6.6275362018409
-6.6544015377192
-5.08978931535954
-3.37416048081041
-4.52457555539916
-3.06860634908903
-2.95691470302699
-4.85330020595417
-7.05230146291935
-7.80310530236179
-5.86963583637287
-4.72947523570764
-1.88780792967496
-9.51237975123326
-5.64417248989888
-4.63934240132583
-7.383037893232
-3.69593339040198
-3.13310486103684
-5.56726052111845
-4.53792059394796
-5.49787779136862
-6.39593607617912
-2.06916443144647
-3.77128735059985
-6.92301461802964
-4.9533990047282
-5.58602816368655
-1.26513515602718
-3.10433516582321
-7.41145506804251
-5.6416999705791
-4.31828828325233
-4.97263068140345
-6.56047714266807
-4.29533128497135
-5.66636504179228
-4.95033716207519
-6.15661310913774
-2.91680474672144
-7.90880771666892
-4.80311420764425
-8.67404928220781
-4.44548167123038
-6.34278930042189
-0.43411418583859
-5.13986093082381
-8.53880628706576
-5.1900498223668
-4.93291886292344
-4.21074809477515
-4.65426252595327
-1.4874124089938
-4.22849531166165
-2.95051167226975
-3.06155607262235
-6.03164034727148
-5.0674738991853
-5.05409909814531
-4.12911216483834
-6.51932249905454
-3.6265183649736
-9.40376478645287
-4.64002909538287
-6.31170498951844
-0.895737045396239
-6.26041485017867
-4.62739586213616
-6.42758130607347
-6.4638677998714
-10.3034465950927
-4.68287393783291
-3.17717517129361
-3.25342485432407
-5.27378275455947
-6.52650695826322
-8.32733350790687
-4.37810153165743
-4.457294587587
-2.35533267751365
2.42318401035078
-5.78684338115156
-6.53090039417706
-7.4502997422993
-3.75761748803771
-6.22441772839964
-8.78339690947567
-9.42887695899206
-3.81900823546129
-6.14176235895388
-2.15049383615554
-5.04407764681652
-4.25329203421971
-6.50073576462083
-3.60110871315841
-3.38296732523519
-3.22206832154717
-1.93066452495088
-7.97224853889988
-5.1998977471551
-5.39180786861156
-2.21166656180234
-4.45284852422767
-4.89899430026206
-4.27513280969961
-4.57715255706846
-3.34936462292352
-5.70633863501463
-6.24053859909855
-4.40329498526162
-5.29348570699657
-3.67181121981818
-5.02863902663108
-3.80424308210309
-5.22604843583635
-6.67974685719259
-6.90540404123376
-7.29352000847829
-6.74134968265538
-5.91035432938346
-1.77313457717714
-4.22194686437797
-4.22742993697219
-7.15859446926093
-10.8886128885751
-6.33636564508621
-8.66363984603353
-5.84812308010582
-5.25594615573676
-7.4783137379426
-6.02786213061151
-6.60177079038829
-5.87461100989431
-6.23117395476935
-6.04069844156654
-8.24701654778021
-10.1518456872412
-5.48718013453482
-4.98695660748118
-10.0079780612746
-4.37803938679661
-4.22407466256585
-6.43783682887473
-6.29732414106145
-5.99394696384092
-6.48927650532547
-10.6952978893073
-3.50362805906917
-5.69795355596354
-7.34415214732624
-2.50727242876469
-6.73998514626393
-3.93514389035633
-5.49614199083793
-6.77105001212529
-3.24439935637458
-4.73993988821166
-7.73495009451252
-4.2687088221073
-4.20599723702743
-4.55987273666119
-4.90482964083217
-2.96355409666337
-4.06625869009112
-5.50249412125742
-5.3818065039827
-6.70481701807972
-4.83425295412998
-6.17683444051452
-7.08215238084967
-5.0949221945896
-9.31677837383962
-7.38808481819994
-11.4964070222621
-5.18943979156791
-3.27338280401538
-10.1282188385326
-1.20754026620892
-5.17263820215281
0.955345541103398
-5.28821134974493
-5.94171499586099
-5.51861713917048
-3.96722880208809
-4.46524226336338
-6.15934554699828
-4.94633057210892
-5.75897926150436
-4.33456813006795
-5.72966567336985
-3.73666902126355
-4.31686101504808
-6.31394574319866
-6.28542593983007
-5.49194156484415
-4.7515945929509
-7.05857385337461
-7.07253489907836
-5.60964544210171
-8.00956182649289
-4.36044551566529
-7.01331931987271
-4.75509823113807
-4.02406164325901
-3.34224553224941
-3.81629725225668
-4.78407152330778
-6.96590869083623
-1.98413666112569
-5.05793814455088
-5.98724429942643
-5.63230165344238
-6.45061622142253
-5.7094003411064
-6.36781317128717
-4.16553459130986
-6.11370540497285
-2.81901984151685
-4.67377508892172
-3.37318842764186
-7.02028640598448
-5.3922867751867
-6.95948210980394
-4.69699865075199
-4.24814560410935
-0.385604456378733
-7.5049435750242
-6.53350999001694
-4.83522024563075
-3.18439645169565
-6.44158672697845
-3.3694802768895
-6.04597279850057
-3.61304050429306
-5.29958416035424
-7.22273104182384
-5.87585870017123
-4.63684781473377
-2.17173886705455
-7.39883583438369
-5.04637716822166
-3.95252815961879
-7.63806851519889
-6.75132832923886
-3.95324639708741
-11.035798758987
-6.05018690053659
-7.9290703781391
-4.35020019716676
-6.10922377784187
-8.62913448282982
-3.55076957794949
-5.12003643551395
-5.54785498310673
-6.37880370366371
-4.83561120545773
-4.23241748798035
-1.54569675401131
-2.38016618530812
-4.42521071636872
-9.32132636883738
-4.26205324285442
-6.80517053273499
-6.49937981890156
-3.37324180251078
-3.38107993993738
-1.54059177816548
-4.69596206104782
-5.14225819269255
-5.42931351437847
-8.40320484897608
-5.52870829010817
-4.42671032162147
-7.75304057965959
-4.35294685288749
-3.60819554667673
-6.28574219047918
-7.54812982242753
-6.13852716406299
-6.17586515170977
-6.25495994680178
-2.50320947198966
-5.74739834721049
-2.1886575613328
-7.86324466214598
-6.74963146384511
-6.87201709353857
-8.87454357190642
-5.21924736460514
-5.16583756836602
-2.14578462796421
-3.82381150658622
-6.34870125270303
-7.51323345875821
-9.69782554601543
-6.43299812103335
0.961968493643812
-4.90071264076637
-6.99804814709839
-5.71894286366239
-7.7927115486758
-5.78965466205505
-6.3713095484908
-5.43006057811457
-5.31492381661222
-4.38866560727159
-4.56737491401022
-4.40800976607606
-3.04562228146522
-5.80140527494827
-6.43552747522912
-3.85487331877341
-4.47216685685183
-10.3614976144035
-4.94586232429383
-4.76573121403381
-6.44216015846251
-9.38317581677641
-6.21203495152395
-6.4746337916802
-5.04769735063673
-5.29742383252644
-0.714174382340729
-4.80266904662111
-6.73001669553364
-2.3348436782986
-6.33842765846931
-2.16498083025842
-1.84634669672328
-5.30720020151678
-3.11799373582572
-3.19445843845289
-5.00793931879217
-6.09675209273234
-4.09342923005963
-4.29459967909248
-4.16996005619246
-6.73968708699431
-8.83266671167004
-5.95935961945156
-5.46193547467119
-3.24304241396975
-1.88231225992511
-3.46697442649066
-3.27786120916165
-4.0491415508813
-5.60327140988807
-7.74568089969261
-4.33410985256426
-4.75797544259185
-4.1501805363107
-3.11105081534165
-6.18995635474705
-4.18530234735659
-6.00908076696799
-7.39750190771262
-0.688607115926361
-4.38886354573656
-3.55492558393769
-5.09905940811103
-6.76772098711817
-4.4933428888283
-3.65434081393216
-6.13975605226494
-0.703259484307794
-7.21004290248038
-0.571815200343835
-11.1168293875673
-8.67206377853508
-5.57156872076406
-7.87734227507091
-4.27530245884233
-6.51701800704959
-3.10262729681882
-8.91482984631193
-5.96014282210841
-4.97351664944997
-5.50598043534777
-4.2824008784709
-5.87575443005924
-5.9234623100301
-6.96121389956058
-3.73363662469634
-4.37225815592579
-2.354160442199
-4.07440573203651
-8.07804819709203
-9.51900285724998
-4.29724890799534
-7.60354975754601
-4.16026030985183
-4.25521492720537
-4.97193944614584
-6.83707313108072
-9.33998690649867
-7.1715211395435
-5.46805319821917
-3.8987186757936
-2.34284910560878
-0.0525067006488984
-1.9356912708808
-4.90713759203289
-5.28670179078963
-4.45793445341946
-4.91887731841258
-4.86354728352537
-8.09479177532973
-5.78164681517944
-5.2672095686296
-2.95014989067508
-5.25368360415097
-5.28376501352005
-5.04188237257497
-6.46852149600318
-7.79470552469802
-5.34980369944453
-11.1836479379496
-11.2342311669532
-2.74033905876912
-2.28069200923084
-4.89661883864931
-6.77776833440148
-7.11488937500306
-3.42653822878927
-2.26838452797736
-3.07421322165624
-5.01831567411008
-5.17113965679666
-1.84329056303611
-6.68334570404812
-5.04289041143547
-7.71035523978064
-6.99846216445587
-8.36938859657926
-4.05775723419694
-3.60390447900481
-7.03007637447494
-4.39709809886478
-4.35587301611927
-4.38862585038008
-5.68804994528123
-4.25975674636975
-4.92865465323975
-5.11952960783743
-7.05811955271607
-5.42078617491525
-6.25189741079406
-7.98908942529566
-4.17884430145019
-6.92380327990412
-4.03578873611756
-7.34584883807446
-5.39377022486561
-2.08555756580826
-9.62818984606154
-8.93802205162037
-10.502235064127
-1.10698302997099
-5.55433773139853
-7.07450298429207
-6.55606764390607
-8.48600641461205
-5.36572585119386
-5.65709203047176
-10.413820769081
-9.46125397610788
-7.15792026375421
-2.32884607894732
-6.86474234520769
-2.20053691559268
-5.31928224742504
-4.7288843731583
-6.06769427352086
-5.3380306559119
-5.35168722032669
-6.0547427369455
-3.75154409828847
-4.8654623199642
-6.04287203043095
-5.46923638164809
-5.37863304134632
-6.82815420794469
-8.42742447984545
-7.2836844962721
-5.59523768005425
-9.25407057780353
-4.63399258623208
-3.70556274850197
-7.8443674676911
-5.85696286076161
-6.63350586171809
-4.42060519900016
-7.69233918610371
-4.79232191364902
-2.72332791939529
-6.2853791591684
-4.92488071361048
-4.32023714020664
-8.07309327989048
-5.23663076831344
-5.9381134682119
-6.94151708623562
-9.00504086442595
-5.11757556066823
-4.77036810185901
1.50054230595985
-7.7684817608077
-6.66501342453231
-5.16592846892815
-2.69241999521094
-3.35865920013331
-2.18929288101837
-7.49442097200609
-7.61520869819109
-4.33995795860587
-3.95486682980531
-0.704903662666041
-5.72488004226789
-6.92010786006541
-5.36460124726194
-0.786769801229127
-4.94687025262898
-2.2326672291312
-3.3376784856291
-7.45190750344848
-10.3881906325552
-2.22867820629637
-2.87895087095377
-5.02308150138387
-5.48081440702693
-6.48513019144904
-0.499744789021156
-7.82466719003935
-1.81661922624976
-5.87634711026493
-4.35067688189523
-2.56782175609067
-5.65541987225961
-7.34234262928634
-8.31972708139876
-8.75998103598669
-5.6085911958983
-3.43320065630672
-3.98933694103013
-1.62584126951352
-5.73617470369446
-0.591636212100313
1.00086968602407
-5.63273659894217
0.357746835606132
-2.27427375551373
-4.73850670061528
-3.85642107577524
-1.25360053067377
-11.0119876225584
-6.15756003340321
-5.54046155303616
-3.30338105580812
-7.95097347975073
-6.4758977923322
-2.82116172212609
-8.59683525650215
-4.980089810113
-4.69754827858226
-4.1732584984923
-3.72078424295022
-3.92549092727385
-3.62307561023741
-3.97219736068418
-4.25926326837227
-8.01995458102737
-1.19796679655125
-3.21861630850568
-5.19326559987871
-6.23725866356862
-4.44545505067036
-6.72846840157072
-2.61182602729338
-6.7805261370552
-3.84197820872422
-5.96294414039862
-4.06097139419541
-4.00825246869442
-5.98989228611501
-5.83379582174693
-1.84543968076811
-6.55171347985956
-11.6888211901428
-3.47677567528989
-4.59631175441282
-0.839184494256389
-1.01517992845245
-4.40820762872266
-5.46774860832052
-5.66196136687423
-2.4908175644626
-4.10874119936481
-6.34044455620159
-4.6729138035421
-1.45929307351618
-5.30370844788243
-6.2421201306467
-3.37739573433398
-2.50007719256918
-7.28873728995205
-9.26577724432688
-5.37172528385218
-6.56074022147386
-7.59555507236804
-4.97965819269651
-2.39012211082114
-6.11538866816918
-5.38084649919445
-7.05447968517281
-1.84790190101861
-3.41717713569069
-5.11893870510052
-6.32498653019267
-3.13157772515865
-2.61455254208916
-10.5202842483423
-4.16557735962076
-7.58704979012463
-8.03490856539032
-4.6116490615601
-9.13506383009711
-11.9266910670423
-4.83716236931555
-8.09851549823429
-4.91062880868626
-5.30807160217696
-4.43058070798068
-5.89561076569355
-4.4916387321669
-4.46386941365732
-4.01727278469852
-3.77531354036373
-2.35060196645076
-4.07515853604098
-4.57807051238405
-4.54335285542887
-1.54459838059334
-5.19355940615135
-5.07801628637088
-2.28638676508721
-6.15959006092864
-3.09952141100094
1.16763534403764
-4.20588559681489
-7.49511390333593
-6.07748637397009
-1.92214623455184
-5.86066585744184
-2.18497432598596
-4.37887683805428
-8.58177343559329
-4.85223982367347
-6.9717595817716
-6.00334207517658
-4.41727083174238
-3.83882477230686
-5.78386474631735
-7.35402497837519
-5.42588308980419
-8.49682584974638
-7.74759192999427
-6.11699331516858
-7.87524753925404
-2.69736593006347
-8.85775311432409
-3.2425899033465
-2.14794247490256
-4.76785857031329
-8.82879588520772
-10.8818285184893
-5.88016817133699
-4.31854214025783
-5.52037549950723
-5.44368481797729
-5.84544688940273
-6.06718205169299
-1.54610926080206
-5.61833626785567
-5.87886818483372
-6.19749685347756
-5.80640295461121
-5.20448277565781
-4.80165179390189
-5.82846198700928
-3.37204450708285
-8.36632985097423
-3.93618866746226
1.21378398282828
-9.81252543748207
-9.85255977009948
-8.02633106972908
-10.1284380713409
-5.84498123468692
-2.28006286788327
-3.69910609665339
-6.48524395685464
-3.5404710451931
-3.63277956135141
-3.90990347722024
-10.771618411711
-11.7278241040792
-4.23787099760745
-5.65660457989707
-6.27797376516123
-2.72481480308833
-6.92558803891622
-3.32605861061573
-5.54005333572974
-4.8066217404973
-6.59979436351253
-5.73245428703891
-9.3836435409543
-4.03019098835357
-7.00610236825805
-7.28329997576096
-6.05208014077424
-6.9254514832348
-7.27181892662125
-8.22413624799296
-9.08101870142166
-7.10811755687363
-7.76825361715216
-7.33410720271901
-6.57255305336254
-4.41406834207256
-2.80042380541308
-5.86665991282111
-6.09539938232998
-5.79861142954575
-3.00575308999983
-6.05511149790087
-6.16299746235302
-4.51997693814162
-5.42824881157449
-3.35943389659638
-2.29470307268713
-5.22475996033809
-5.87102289080625
-2.31910372814184
-4.61931448442231
-3.55473230199261
-6.19217092680975
-5.39062805702702
-7.18191058225143
-5.15877720300248
-4.20582356175303
-3.59640918018456
-6.29037442421369
-5.33752059305455
-6.59251592461869
-3.14247812782285
-3.48976814414794
-5.90689038920158
-5.21774937414257
-6.0945503459456
-3.42104703840847
-9.47672738895232
-4.16874900296245
-3.96765476215331
-6.23669498836937
-7.12943368474271
-4.41963187536931
-1.78039421660842
-8.55926373914928
-4.27976798844334
-4.38637198443904
0.313562093133452
-2.06293433903541
-3.51899537184328
-3.13823268732837
-8.72551744119683
-6.77406766083786
-5.40008030558921
-5.28926621379697
-4.29475239231982
-5.3098073334389
-6.65783139108513
-5.35102964862614
-6.41804314308668
-5.18923027709506
-2.81467631435346
-2.38982808476205
-4.24144195235672
-4.53007028633384
-4.60355301155419
-7.41718378742767
-9.6295222851442
-7.99006405935526
-6.91537307938391
-4.11744880882205
-8.68936407156078
-5.10321431212601
-4.81451365297214
-4.87132170249883
-4.72900644175675
-5.4010354377071
-6.17912510200298
-2.38882335648209
-3.60398501464481
-0.06789999523049
-8.68722978452538
-3.48799778408265
-3.86156886388086
-5.71498370001103
-1.99542206039296
-8.38330156882566
-8.25107008771394
-2.79382961116953
-6.29018648031494
-0.537051212064676
-3.07362275792015
-2.51299470070456
-2.07867755873568
-4.18296361498156
-4.95270120506947
-4.60678810075727
-4.18278625507285
-1.22616343910239
-4.99129386264213
-4.69276402991927
-3.27628823691189
-2.44548539672436
-5.57315961925145
-6.73343064229559
-4.31485715296161
-2.186415309851
-5.1944812764873
-5.67538000021568
-5.25344454251292
-5.56673778446878
-4.56164769216118
-4.58833021699394
-2.76365245573301
-5.50462302972049
-6.71722488964816
-6.16965889323516
-8.98489941829721
-4.80186606982786
-4.81451129494936
-5.43546443175182
-7.14404353851423
-2.75034576742752
-4.31447241055064
-4.97746871336214
-6.89388213181188
-4.19474694757483
-6.26086396148914
-8.88453786314393
-9.44705997208985
-4.37428805254969
-2.50054226784514
-2.69499103093196
-7.04677586676838
-3.93809189612657
-3.33695410152771
-2.99600809250711
-3.98384314293052
-7.24745098000102
-6.90407307783
-7.12187585484931
-5.20344601771701
-5.51879204385947
-2.0385988756179
-5.32621090869703
-1.49741169233613
-5.62624566006049
-3.23441048617685
-1.49143191779506
-4.41175771571287
-4.03050810460541
-3.38667488139565
-4.47421621137144
-6.08906601318177
-7.00435113745452
-10.5503589244575
-1.24299875242082
-8.05044344420349
-9.36662081310708
-11.848187840867
-6.27896872813569
-4.12826934994832
-4.46790662703806
-2.68444727261459
-4.08267837948726
-5.25398951629926
-5.00171556365793
-5.85949030222399
-0.599730637702392
-4.35474587444755
-4.38620250349027
-6.8577478806923
-5.58395046021925
-5.4421447790919
-5.86095966301273
-9.40173840232593
-5.27487977665235
-2.02757592804259
-2.8743238839419
-5.34838523852523
-5.73433195916769
-8.12982983953631
-5.36275412455714
-7.00913192671756
0.168462830961855
-5.04390078871992
-4.85227958689568
-4.00471826143181
-4.11749994076783
-5.62622333878291
-11.687696127525
-6.72953073145564
-8.29038129564999
-6.92752530716505
-6.65357280976225
-2.47124293471464
-3.47930148240796
-5.92920524308024
-8.55028768687874
-1.48729807255108
-3.00568406792626
-3.22317385735325
0.911305846592687
-10.1243578954381
-7.7017267066455
-12.7191953439248
-5.64328761056096
-4.52915403646524
-5.42385663504987
-7.0594625177039
-9.59548373461171
-5.7172699972181
-4.16364229040233
-3.5122444567157
-6.56854592937106
-5.13021858711709
-3.94394232083972
-8.05306805980512
-7.12053143900742
-6.09647043843105
-5.91888495435964
-8.42583656351096
-5.43963368644713
-4.90862039911358
-4.42249265823657
-2.19025534629814
-2.8926557549226
-2.69217502529485
-5.57802962784498
-6.10723223600128
-6.70932649218032
-5.77024701230866
-5.77605251586483
-5.91257136391769
-7.17941692711642
-6.71938332589435
-5.69067300969171
-7.71239708900471
-3.58065626934641
-2.47804971125925
-1.72576259402155
-3.33264133515932
-4.53152539518693
-3.96487292623353
-9.55487526389267
-4.7305959877667
-6.45747603895959
-4.03761204713228
-8.04984674945329
-6.58645302019348
-5.88030253610954
-3.13615604842651
-3.45150744824468
-4.17882480020632
-5.34344173967551
-4.43283398231916
-5.12546184376733
-8.08085106217929
-7.04295090322007
-2.68789366212739
-4.00320516420068
-4.53774812404274
-5.04395268826004
-3.50974380410013
-6.07256880250942
-4.3883345369425
-2.98232973820706
-5.27755672895466
-2.57235255810518
-2.2912644291429
-5.75518048757377
-6.04421182057034
-2.3513911353109
-8.82178311747733
-8.63160640625002
-3.18128259727453
-2.93951764852946
-2.96815528556438
-5.67242567434502
-4.90938587472917
-5.79324824574947
-5.20471774230074
-3.81788355559526
-5.24293970940807
-7.2019366509186
-3.53200644649249
-3.91175097836404
-2.3923084161822
-3.84830540395232
-1.95634887261152
-4.11535565386519
-6.38020587571433
-7.43551028793671
-4.15033949288991
-6.37230766855424
-3.5779381835905
-5.33649111989101
-6.2359083578041
-4.35013757982014
-4.79835811062347
-4.98421198403328
-4.70998226040251
-5.05703599549795
-4.8889246692799
-3.85759798792892
-8.18211184779429
-5.65607330785418
-6.67706855450283
-5.94396080193858
-3.61006118879236
-0.644744796510146
-0.284688335094445
-3.86974373335514
-1.26068058064081
-5.83736066643074
-5.74817419498906
-4.20747922729597
-5.9390649603312
-5.11279108413625
-5.48391344199166
-5.80899101275526
-5.16515852146048
-2.60731416831092
-4.72392751343533
-1.3757826121847
-7.57831473535573
-7.3119547828868
-4.98283791108973
-4.6136961963634
-4.83027099386803
0.896204318593118
-7.23327808647819
-6.2428044924919
-8.64247131414582
-10.4790676561166
-5.00697650740862
-3.23465976938189
-5.39273505124874
-5.69164925877677
-4.14046898358352
-7.15733017271387
-8.02558784588203
-6.57579786564794
-5.68701628944518
-3.33408040140383
-3.64530167740994
-4.31156891868996
-7.50814074313735
-1.61546599864266
-7.008614929579
-6.11769845297625
-2.39922337528934
-5.81519648874927
-5.06215796347329
-9.31374701685892
-4.67179455808059
-4.2834360282559
-3.64660809828699
-3.31582705507706
-4.21799139595937
-5.16174197016323
-5.46391207560368
-3.2242503520787
-4.95129930668808
-7.82348459486217
-4.2091676721792
-7.50686181143988
-7.28997937562343
-6.35393331003354
-1.98142040112008
-3.14548921728617
-2.50008111133955
-6.82090919731781
-5.86464010781801
-2.05302668060752
-4.27852456392496
-2.10606192383923
-5.51017092715179
-6.38900520149007
-3.5815125202578
-3.24180397903022
-4.72768420755974
-4.67013772104316
-6.68381065691211
-5.71192628883479
-4.1645076352426
-4.35498634551824
-3.48898973098005
-1.53281484602796
-4.78382402056812
-5.6774035471315
-6.23760437041429
-3.10437641013883
-5.14154124140292
-2.9468024252757
-1.9679392125398
-6.30369561032231
-3.32053095326613
-2.52181269532615
-6.25287827432627
-7.9573096119591
-6.10092796201948
-7.27036895347158
-5.11958575786395
-9.54571817431811
-3.36577200278948
-3.31178028861807
-6.72168529449162
-5.51732557855098
-3.9315898715623
-9.55401903431221
-6.83196431332191
-4.38779603827273
-5.50449483484547
-7.7150081501193
-5.13239852892158
-7.88996854921284
-8.7409840592258
-4.376775294536
-3.15694929320628
-4.95081305641442
-4.8246116435225
-2.26404593957245
-5.03058170703743
-8.4410225509334
-9.09396539391996
-9.24797355817469
-7.41878418399426
-3.74088666399794
-4.35665258696115
-7.05614709394904
-6.32897139598299
-2.1966096132255
-8.57296920753658
-5.22472572266744
-5.14134403783193
-3.94306695474021
-4.54590401057551
-1.62869240395673
-2.78772891616462
-3.91802515364133
-2.47688208027733
-7.14402852923661
-2.89975463674706
-7.90121608866528
-6.35552828465559
-6.44287135392107
-5.92686023088969
-4.73130985145079
-11.2031254058859
-3.78716163334732
-6.06760527166744
-6.00351424589848
-5.63619439271705
-7.45576650317563
-6.5041912751656
-8.67717308245172
-3.7343672814159
-4.87184649414548
-4.48760356249226
-4.64857396492866
-1.43997724068311
-2.54299111210946
-5.24053290044789
-5.08990994831642
-7.16922078390756
-5.62212479543787
-5.1312416821256
-3.04402140848843
-6.10337303505547
-5.29152032546703
-5.7360716557679
-6.49535418923251
-3.1798014125335
-5.13275584563253
-4.59853978111454
-3.7828123147771
1.16587254117338
-7.79222211467875
-6.49007832514881
-6.30800700642638
-11.0193990063289
-9.66759737480229
-8.81118942587272
-9.43912387317249
-6.83375476516699
-5.597540700801
-5.12040078531562
-8.63838070642912
-3.07918062050289
-6.64600904552057
-7.52482009911608
-6.26005041380532
-3.90023476782509
-5.05437104496419
-3.47741522204929
-3.86682719418213
-4.87274721297076
-3.74937954235915
-7.16238244762777
-5.57564922357547
-6.14539769392245
-3.10192138208107
-5.88810234029457
-8.17389317321225
-4.32785416685906
-5.06862026688519
-7.57880601011216
-4.47847145929917
-7.0314611266414
-4.43354511900556
-7.64486220362303
-6.26286911733329
-4.41017638040175
-4.99672826027371
-5.19374059094901
-6.58795349024319
-6.65980077445898
-5.05685069066778
-6.6952245911319
-5.99641565783932
-1.14124687245984
-4.16589632491768
-5.13708254076778
-8.63126160535678
-10.016484342787
-8.25838865677147
-6.84088435204668
-6.36987033757678
-5.73989638780068
-9.68356249857836
-2.95285412190964
-7.0460522011578
-5.24803154875271
-4.51244229827342
-7.08463026300434
-6.78748349639824
-4.67566328586581
-5.31034679895051
-8.6560287227045
-3.75383057451907
-3.93764686919474
-5.73614323622624
-0.713308112559822
-5.3850398760448
-5.72479482396311
-5.55336134578162
-5.13148479544809
-7.06571081756643
-3.83610155486286
-5.01842258253104
-3.58678476806568
-5.84599246382772
-4.78605492012538
-5.02657056539463
-1.76603272707365
-4.50950702557549
-0.360009247416388
-3.94846686189261
-4.77019902420201
-4.18167098093031
-5.91225275963179
-3.87824418789951
-5.59735303895323
-6.18258236261747
-4.3928491967178
-4.68579812795604
-4.98358961474938
-1.90305806852445
-7.82668714268345
-5.84244384921166
-5.92102405497686
-2.11413746109958
-9.7217678359984
-6.15381361657881
-6.06300958618136
-4.48028190952401
-4.18767791172842
-3.26475165688934
-4.94619502195353
-6.2221237203319
-5.9410556356158
-5.48381638568997
-8.94996955738832
-1.8615862324139
-3.57727462722048
-8.95561771340973
-2.38557115393491
-3.61502852811768
-5.13072699044012
-4.13760643972152
-2.32977611754533
-1.7146617321264
1.20122300020207
-4.49123636741869
-1.43796126045668
-4.98255661782148
-5.8153155646094
-5.00077250976519
-6.14193019327277
-5.33538114583673
-6.51487190922183
-6.31402309981675
-7.19182762412984
-5.46470776171405
-11.3462877198592
-7.05783086233837
-6.02334666635062
-4.28921324597482
-8.83057386603307
-4.33450855770101
-4.61792861026894
-5.63869981582345
-7.2323935813092
-2.60787317798825
-4.63013157435961
-4.92303031297019
-4.26638068746955
-7.16748630142359
-6.71639933781767
-5.42083207454975
-2.61995075709396
-6.55140132724144
-5.70462099003894
-2.29739122635344
-4.96698537673561
-5.736639583225
-1.58200917840138
-6.77747561710623
-4.9747752139364
-5.82920770922061
-8.48331191312943
-6.55440621467846
-5.71675836794934
-4.92752179973301
-4.47298407671903
-6.11109461367819
-7.04484689471305
-6.37243922246911
-8.17859738123552
-5.69441245757912
-5.38684978826516
-4.06423946875391
-5.22354782500451
-3.72081179405104
-5.3051679441104
-5.15427412566678
-3.43107841470963
-6.44023503115527
-1.21058140124608
-5.51805820729076
-6.32543612072778
-1.8762020508014
-2.12468457078311
-4.54858305177625
-5.48533084977312
-5.90850796314744
-5.59167185506394
-3.2449449200177
-8.47725564574326
-7.47759644782384
-5.67383401569454
-5.30800692638525
-6.06661558811708
-5.14708965446367
-5.22943575321681
-3.66776849240322
1.68005498504235
-7.41451877721508
-6.43025875147829
-5.09204028887548
-8.24258818993195
-4.52075166742349
-2.98019506551835
-8.95365536883748
-6.13248638164705
-3.69962930226792
-3.51574115868091
-7.34961451548188
-3.87817410897397
-7.72962034307784
-2.61462634904009
-4.26791145890935
-4.14671784711123
-5.50936770268318
-4.26037376227101
-4.72300054767459
-6.04820256276828
-4.0353765865147
-3.29630242706778
-4.3530861714053
-6.2361985575854
-5.67245933729048
-3.1508982003432
-7.16808922855361
-4.0759059077393
-6.51825560439179
-5.58839403048061
-3.91549035953666
-6.64769102594918
-3.28689652708341
-7.42122464084444
-7.37837546614231
-5.10299028086165
-6.12839273981897
-6.17798112387788
-7.77830327314611
-3.09296217901852
-6.06840191725952
-6.22815917524898
-0.982730705551238
-7.31568276894754
-2.7445867829706
-4.8666005689078
-6.31215962680424
-5.92230592431405
-2.46332823643808
-3.03983847066262
-10.3675244521272
-6.65304667481516
-2.624354046236
-1.72997980081166
-6.64659187628809
-2.60771904764249
-4.26933129303714
-6.47976286635243
-3.95225688226131
-9.23275285555659
-5.19534381368955
-7.39264851961154
-4.70855536935185
-4.91986072319147
-3.54541857370874
-1.26893860144563
-4.9130845347798
-4.9894152003765
-4.6858389867877
-7.43051272442989
-4.25784139957813
-4.75473795868838
-2.46218949396794
-8.51907180540511
-6.75694117992165
-5.81409883808272
-7.60159659225357
-7.95429460353751
-5.79580876626042
-6.90587486728633
-2.82388675346068
-7.01905912651745
-7.11981364807582
-6.82105065542233
-5.45554213261915
-1.79346680786667
-5.43987581114529
-4.99924978990067
-5.46141293623752
-3.63480610739976
-6.28995362813876
-8.47022475336794
-3.26613320440676
-4.20314053343398
-7.13234320933624
-0.267383934601305
-3.92031078135943
-4.42277803239847
-7.03930061715246
-2.76116619897484
-7.81980146882661
-6.16902852721919
-4.25288447956919
-6.1567176175801
-5.98985274379936
-6.44730269662313
-7.43678944861363
-7.056318346752
-5.05212893452727
-2.25252235123533
-4.93044971256495
-2.94627671335227
-4.94738556212457
-5.17663969688747
-2.35739527273006
-12.4308479090018
-3.52656062982917
-5.80192544375384
-5.9272525040516
-6.21998204584473
-5.05988070855262
-6.18700476706524
-7.61205432259113
-6.83938765372573
-9.31258705674542
-7.48407376968378
-6.33528537835402
-6.19022480233662
-3.18192592669131
-1.67449516693448
-5.68205854913036
-1.69587750452668
-4.40017544729299
-1.03106305261144
-2.99971019316399
-3.91859745599879
-1.19508800763982
-2.37715861743405
-4.41686009403635
-3.67222608383993
-3.69729302503472
-6.08668926590014
-6.34672466827505
-5.55302329713615
-3.57304517463812
-5.02432834096036
-4.97860235339319
-3.16393729526507
-6.88042722100318
-2.48418684802005
-3.96551288805599
-4.03866191026565
-3.55122808548993
-5.50672306122135
-4.07683688528019
-1.68690129630825
-6.84417953606824
-4.98058629771324
-5.26519752076538
-5.07259656126585
-1.51748491157543
-5.10037145974839
-5.98137002824472
-9.68320428788912
-4.87718762988695
-6.18451405127517
-7.44917291631067
-5.59884818470685
-3.82405151424751
-2.38722939804028
-6.89371400945722
-3.28800301026536
-4.29650295098144
-3.96021415249161
-6.46186793509459
-4.11943838831929
-4.74439538722186
-8.19754603097895
-4.66160223737762
-5.06025710128702
-7.85969002343645
-7.09736696043145
-4.76834657156929
-5.97760400411196
-7.57953305109206
-4.93517768156425
-2.69553756881006
-5.4154032117415
-4.29599073891573
-3.86219127445003
-9.00217373295261
-5.70601270949636
-6.69258282508034
-3.80353124527884
-2.57474434074189
-2.53474635777912
-5.87774435161874
-6.83058459954266
-2.88059406232282
-9.64993546354384
-3.68338462089085
-3.63558883137303
-4.88494954365183
-5.84251578784238
-2.48200628741966
7.38134300068512e-05
-3.54274527578728
-6.30354855599223
-3.97317176740669
-6.90840107246987
-4.45992349919557
-0.258441870432216
-5.24826705730935
-6.93529408524571
-6.54069995960571
-2.77361673738393
-1.80995327468708
-8.22283064672114
-1.34643038011373
-4.69320004197788
-4.56220957577179
-6.00488488729279
-5.02200764804085
-6.90308052600446
-4.80870814015227
-2.43757898192546
-3.11769324383619
-5.08185180641211
-3.78519513105781
-2.68398365817668
-7.38962852094324
-4.80837877359953
-7.38461504039615
-9.19627008876776
-2.79909848048775
-4.51480186413441
-8.53641238857276
-9.08090229521988
-4.1814113516164
-10.6114490457917
-11.0393557502722
-8.11050731910249
-7.46581455393034
-7.84997782614647
-7.90110269920121
-9.98528811058112
-5.01586812853466
-8.54405948554231
-8.50642543489776
-8.83296074210278
-9.18740210517559
-5.28880494233346
-5.2746287687418
-5.63636988114979
-6.44472365015871
-11.174081911295
-6.25677566125236
-6.06599602211507
-2.07423126940998
-8.41328451644463
-4.97407766480127
-11.2228778356813
-7.60885704526166
-8.30420019137198
-9.19156987746562
-4.99978860553687
-4.40652915925195
-4.72377227278517
-5.48399982079421
-7.10209148365791
-1.37843378444736
-5.64130446764101
-6.87239431101642
-5.93005069696926
-4.71909686630284
-3.84940765311374
-5.99325341583771
-5.17057285706607
-0.557318947863523
-3.03335595490346
-4.53553745433654
-3.53267252839944
-2.911531712231
-6.60894398110778
-7.47077344384775
-4.64700326580477
-11.2113729442537
-9.19531802778383
-5.75550294239927
-6.06241945014221
-4.71440389724282
-2.85899191718494
-3.1319383450019
-0.185412213165825
-4.48311912282998
-3.41898360697017
-8.26165393713266
-7.32530392190181
-5.8799012891594
-5.73795117659214
-4.60951404116966
-3.20407689094137
-0.713650607756641
-5.30119343981734
-8.91619448610549
-4.67990594017097
-6.96345487790462
-6.96838656622156
-1.17748511116742
-6.53311966450479
-6.14724766901996
-7.05443078158479
-3.18833007955264
-5.66535276333694
-7.11795878171683
-8.27720772063609
-11.255507881533
-6.76945573460718
-5.33024706526749
-3.54827770433156
-3.84639581422475
-4.81941865622724
-6.61840556006861
-6.37206764927557
-7.72271312647697
-0.918775991916877
-9.76358330103075
-8.78235538307055
-8.67258972785229
-7.09288148193339
-2.55378447001299
-7.50856897530233
-3.11839021051755
-10.0313517534922
-10.0035450479154
-1.25030972376476
-0.779535114281844
-3.08375262843107
-2.42090720187768
-9.93414245499175
-9.5851859928617
-7.72016613002975
-0.909823192498587
-6.8395165872834
-7.71848061633055
-5.69952849946275
-9.62632729368453
-4.84700810651524
-6.73000680350046
-8.2053747070413
-9.631466340007
-5.92073943461152
-5.23327282446605
-4.70185553810467
-4.16292481534498
-1.02861368742868
-3.02188267602516
-5.78429657263337
-6.36978376133177
-7.34001552031917
-4.52690259018108
-3.60074075578186
-7.6269152902134
-5.67732685989029
-10.9125652343168
-0.954148450469289
-5.74041285703637
-9.04168069110883
-9.30115283542513
-4.55524324987364
-5.62792439767503
-4.22620933278977
-6.05683621000209
-5.80872251650298
-9.46917785780571
-2.29460480839566
-3.51813951633436
-4.58429969096631
-10.016795482732
-3.22152314313033
-2.35688260787405
-7.10830274976345
-2.80948360510491
-7.00681562682806
-7.81010765253895
-2.82340855991707
-3.53208474590047
-3.44074581498643
-6.17559604229029
-3.68171460889613
-2.79128598119311
-2.97516025696353
-2.63725682112588
-4.20972177102683
-2.10646998779395
-6.03992887673837
-2.7048215395251
-5.74573002232939
-3.51391376667957
-6.62637319241585
-4.58336438059058
-7.75553616218141
-5.14455754587703
-1.90507993469136
-6.92343461180245
-5.054617707964
-6.18754177399323
-3.79216473768798
-4.64342429433698
-4.86498562569934
-2.36371726821138
-4.5015510367349
-3.09929245009258
-5.07024968367816
-6.53436010834079
-3.07063537991055
-8.71625966600682
-3.81446057943383
-4.80546366578867
-6.64192316817611
-7.39378188568818
-9.11831750468076
-6.44256797994777
-5.55367234179887
-8.87842620815585
-7.25277516163605
-6.92686731139751
-4.7859863093599
-3.84603408685291
-6.92054622685512
-5.15824626605715
-4.6130153231162
-6.63942592617938
-5.013819307714
-4.80794867636938
-3.6547349162102
-2.61008832019928
-2.18521662318348
-3.82903348314863
-5.14040592428931
-5.38746002477135
-6.46695224434549
-5.36804754076873
-4.52558381220436
-4.65565255348186
-3.00137706127651
-4.70267117335116
-3.48238184409195
-2.97194562114282
-3.37833553438799
-3.38017448857693
-6.67952860997364
-0.728742983115779
-2.65753502548162
-9.47798633143341
-4.76675555159649
-5.86810029029111
-7.72297497246417
0.882560046968496
-5.07015945696016
-2.64292033363521
-5.63828983225646
-5.14480739196931
-9.95573815552243
-9.05450433840619
-9.84082060663735
-4.4126957236796
-9.85625085678921
-4.85796513721329
-5.59523700575087
-5.88779903023019
-7.65130698221607
-6.54905338102454
-7.19597527780112
-3.51863277743141
-5.87810899557071
-3.22470286073355
-3.08184622236066
-4.23875251471065
-4.71998699978662
-4.58098110247725
-6.75730914512394
-5.35879521332361
-2.38777405684675
-5.88992497234459
-6.63797211526096
-6.10129057696251
-6.59995763847245
-4.41247375913872
-1.7693241343958
-9.45678534600194
-3.2450363803768
-3.73815815653651
-4.61114937759632
-5.70533894486446
-6.93456901316116
-9.79871472300473
-3.22763288295482
-2.17063363132924
0.568940973576041
-6.21290931831979
-4.75370525530914
-4.7640862008343
-2.16571887847828
-4.37955608964707
-2.56827975905184
-2.72526626560235
-9.19537117045488
-8.2645427657795
-7.66830766842483
-6.36063439340098
-6.12522945275681
-7.98287443720493
-4.09934657118451
-5.58523355062295
-6.97763950477022
-5.35542691199535
-2.09256603609681
-3.61847219052279
-4.21175182687692
-4.03437407102552
-7.39644887893955
-4.12341153929449
-6.46031905739153
-6.7197991273451
-5.04795048384035
-1.22404601114581
-5.14121633143569
-4.71720833070105
-5.50298599931286
-5.72982682442574
-5.78677262465911
-2.24717176284948
-7.40855160283336
-4.08244290361842
-2.86537168705774
-7.66970733218527
-0.632232115816024
-5.73530017962994
-6.06936096799121
-5.58382781616126
-5.68923014996564
-2.19476621223934
-7.1399223457168
-5.35034074038898
-3.17779705745191
-1.63104009634211
-5.52699842050548
-2.71053557391357
-5.09274839486193
-7.57501796106716
-6.25912952255652
-4.36723700774285
-4.66104046299511
-7.9775337162002
-4.80326797808079
-4.41689659661702
-8.41744154978907
-4.63854448366878
-4.73433640770442
-6.57637744200901
-4.16963034768177
-7.10216513716217
-5.28463762718503
-2.81418386443114
-4.99090337308353
-4.5608084358669
-6.94917269622516
-1.56422453885544
-1.22865128249992
-4.61873649024803
-5.5282161373924
-5.27183868344007
-5.02967516689414
-5.71802187793563
-5.67378131387081
-6.52822438101424
-5.37865159365567
-2.70999847359271
-4.57181298700517
-5.45293775281952
-10.4225294411088
-9.50894035568092
-3.13747251666602
-4.23633387319058
-7.19193855820382
-8.76995710143797
-3.8504221974501
-4.86788178958153
-4.383579944183
-8.36008976150989
-2.03577846861275
-7.52591454791104
-4.48537936910325
-5.7340754483844
-6.53561421477162
-6.79514893491467
-5.11179130612985
0.150966183554653
-4.94149080154665
-4.45335288600749
-3.56962180316223
-5.60901681658338
-0.181872343000012
-7.5146685832587
-8.06126658982049
-7.80323800864061
-6.11286915346325
-3.09508033744063
-4.8432210458837
-6.22279170410491
-4.87033438505479
-6.3175873724105
-4.37082916934784
-7.06484434257486
-7.8854852462571
-7.51052338740976
-2.5159405171913
-3.43849095602031
-2.60206014243581
-6.94954111076406
-4.08412647627811
-7.16137414025515
0.0383572949322347
-3.80450048211918
-3.86232271567196
-3.86234138127934
-4.11540594633644
-4.88309657985338
-4.39076945546109
-4.38828918156142
-2.46244501007091
-7.33028203767748
-6.58695120688647
-6.26136051989805
-4.1371313405719
-4.5742509808531
-7.22400878807575
-7.36989778585601
-4.32199505477264
-5.4295759600832
-6.08884735781622
-5.21364359270879
-6.59569826158011
-9.21575424511298
-3.34100971371138
-7.51096031462951
-4.1093667791951
-2.98705269979933
-5.5194764036447
-7.19638876137549
-8.42585963064856
-2.82118604384099
-7.8615929310308
-6.21537606560759
-6.99965011086166
-4.77086098618321
-4.94247239317594
-8.57046191026616
-6.5435613626665
-5.54987729720163
-8.0347399612535
-3.86828223615808
-6.00068500704868
-6.77906310338576
-5.49842157426453
-5.44298317201131
-9.90844504697036
-4.27040200336028
-2.68054773478895
-3.30526115812129
-8.26915347070961
-3.51335567457973
-2.60914621411297
-5.60130378011568
-6.08517292764097
-5.78404435207174
-7.93946804734629
-5.61079657414432
-4.73483804436317
-6.52842810447363
-6.08584162882008
-6.66021866046389
-5.80217743849444
-5.19410033782808
-8.11321611215555
-8.90702269620787
-5.56177933160682
-4.6572880039186
-6.44781400835923
-7.89374671928007
-6.4623508664007
-0.3115416248317
-7.3049609805573
-6.49301091129632
-5.47970395704145
-3.4007430561124
-4.51318394220151
-7.67487299866836
-4.57217482687269
-3.82974197021859
-7.44936051906866
-3.25591268184693
-5.35682170641692
-3.12341044446991
-8.71647045348258
-3.84260872236733
-5.26596311857459
-3.11122587688787
-8.79001578858265
-7.42013632147023
-6.38447465700369
-5.93576034933519
-5.50535522050749
-7.98537702529404
-6.66154778862203
-3.25537869702565
-6.75537320133441
-7.09179348558311
-2.50173855444583
-6.90366327957574
-4.60416639770827
-5.51700566306963
-6.99068717869156
-5.86975138925269
-4.23631447804424
-5.65075291076012
-5.20203378454098
-4.74990598783233
-5.14153777835253
-6.585812890816
-7.4259578181305
-5.86751666690752
-4.9394525004104
-4.43708389560399
-4.74117507183792
-5.36207643987062
-9.56845662488789
-5.62885620003625
-8.19999072748849
-8.49615494632128
-6.69633832473599
-2.51495129707989
-6.20610106042202
-3.06717624369164
-11.5792570895456
-8.00274610249377
-7.01375746382849
-3.81153791607872
-3.56989264438888
-3.56180854499303
-5.98766572011843
-8.44459585214334
-1.57410241592901
-6.8196531676807
-6.38532810542871
-6.0522184002791
-7.28099544242106
-4.15518607511088
-8.62401148402246
-7.67357733935462
-8.63090598540269
-3.43255019390882
-4.65621650916462
-5.19851744012739
-5.69706069462874
-8.36299264891974
-5.34982802907071
-7.50148315753378
-2.08634591439408
-2.458237611542
-7.71732275496725
-5.36814505957125
-6.05623481798801
-7.668719383061
-4.00312935885927
-7.43179507385964
-5.71550783486682
-5.68806011663128
-5.51201574450996
-5.64773668139852
-6.09325846092138
-5.50994385109476
-5.4428593262654
-3.30120064302054
-7.04173378570389
-4.3034313496309
-5.32624859445319
-5.89238746492422
-3.4560208241881
-6.442636408675
-5.56199013165371
-1.77770475024904
-6.61627333311794
-6.86105197382614
-10.5209089561251
-8.1968123734837
0.297020479307928
-2.62539573513806
-4.00525000461987
-5.37923545703407
-5.07382550755273
-7.89034077144625
-8.25142451977477
-4.99222537014571
-10.7508274246474
-5.9784509719387
-7.89710211130967
-4.71902363992903
-4.98508546002658
-6.15773952417639
-5.99111237193702
-1.66811652603635
-5.89697584447562
-4.58114483108471
-6.34541702889449
-1.56527033380721
-1.90561766245292
-3.40410123923225
-6.68599074167886
-3.52024831388614
-6.50805497370375
-6.94841313190795
-4.60168959561409
-3.99304653308192
-7.57235526707365
-5.07112474725718
-4.85905425961294
-10.2783702305409
-7.45057743324856
-4.76431108225439
-6.2750407670049
-7.89407513636897
-6.86130187776737
-4.47646686018525
-6.07846632510774
-3.55851778592535
-6.94548230616687
-9.07514261663705
-8.12697042421182
-2.34874372490878
-3.13596886358944
-5.38894148564114
-4.98344679608523
-7.5982456248868
-7.88262913217762
-3.17977169749184
-11.0441970801594
-4.57901991271595
-4.229463562561
-4.81378583543617
-9.41237598875244
-6.89312130175135
-1.59216683201171
-6.82173542412853
-9.07207493092845
-8.73515603458482
-7.24225717724778
-4.71813742998809
-4.76417306805377
-6.50114848890663
-4.15399637810106
-5.513588294251
-9.33815869551062
-6.17982774922408
-5.90597783637795
-6.37622819041662
-5.61521991496867
-2.61592647998132
-2.52255156569136
-5.85856323946201
-3.32520485077455
-4.93938190586256
-5.87857173652314
-4.67608625868644
-6.40493491538256
-7.67718435817789
-8.08333978658188
-5.63736759343756
-7.05758805153464
-4.19785495289747
-6.20572584681096
-11.0223456408957
-5.41955003501814
-4.88455668614514
-5.4323649081983
-6.97460228745975
-1.65374900092099
-3.36234875821099
-6.37389917767432
-5.82995410019256
-2.42532739332864
-8.4021238994522
-7.90904059191236
-8.37766441032767
-4.44197402958225
-3.00367331829509
-3.58913594099055
-4.78218766831353
-3.05902299422747
-8.2812285524002
-3.70476997125384
-3.07457354233732
-5.77168084833214
-8.19430540187352
-8.8387901891378
-7.04903860589318
-5.21450985444071
-6.84280009841276
-4.92135285243638
-4.9019650677206
-4.46480716660494
-3.01326827237974
-5.31561251626589
-5.52042454900566
-3.72598576366067
-4.47649769085406
-5.96797167133549
-6.25597333465769
-6.94868929478419
-3.25259339615446
-3.39586941238749
-6.78167551869148
-3.07521169587196
-10.8042587849466
-5.75006941421765
-7.95109094683558
-7.06663859440406
-2.90858305084112
-7.30482548834572
-12.9209489062358
-5.32355795860858
-3.91727127986145
-6.95480976867557
-7.72086140748887
-4.9478332002889
-4.7098268043752
-4.76190530181384
-6.15876577989778
-4.06402604312033
-6.17407876852604
-7.30681332178869
-5.77342104374984
-7.30574869899017
-7.40351328798957
-5.3968295603106
-6.87287795475037
-10.4695783003179
-0.213407730512028
-3.67925188547956
-3.87076315276744
-9.92664466707467
-6.77080454083353
-9.50681751448482
-8.64272478076577
-4.59229689718721
-4.46079085127499
-5.69715219956442
-2.35329816359316
-6.36309349145701
-6.2778194901784
-7.61500318334326
-6.00172369092033
-1.21198547384232
-9.38091467979902
-2.50286201682993
-3.37912111346385
-3.92560546309655
-5.41998958299936
-7.55797516351508
-4.46386180663268
-2.68504728717624
-7.18705882335759
-5.07568449645034
-5.40843676179248
-5.04107865396234
-3.63784583207405
-5.61631208139866
-5.98111261534311
-4.4224623617418
-2.55729934839361
0.829166507538326
-3.85312111919525
-7.14885529196949
-3.62604810268127
-4.10591459920617
-1.99177203268601
-4.91181415149213
-5.82293273822272
-5.78798677318681
-4.92604563985983
-3.76525147294192
-0.180084015401984
-5.05597575332998
-5.05597575332998
-5.05597575332998
-0.370413636393487
-5.45171070377821
-3.07373017301291
-1.78664500718535
-5.59687389032888
-4.10763518213336
-5.11511325568885
-5.49753622864777
-5.57548657333581
-3.30861702415803
-6.68999294211668
0.0361685955437688
-6.99034138330911
-4.19837092371913
-3.03900066133266
-0.582106013656786
-5.78507322326704
-3.70404199541067
-7.31088778902595
-3.26916702060053
-6.32695206545634
-1.69033563271193
-4.01354270709615
-6.3886909719456
-4.80432467910872
-4.39130629918894
-5.12758842349818
-8.00127596841587
-4.096846183452
-1.4314274891193
-8.62704007733318
-8.09178536463735
-6.37875937019632
-5.49051942910961
-3.8776407040937
-1.79604219797848
-6.04776702569222
-2.74572645348025
-7.31518192909872
-3.0666758293974
-5.39115086691573
-1.58978435041683
-3.83042929301939
-3.83150109201625
-4.05434722610026
-1.46580199504173
-7.83161047986323
-5.54250204785339
-3.11971671702374
-9.60172860426221
-3.77114880705251
-4.4512352331251
-4.62807532218656
-7.37266977446761
-1.46881320915805
-7.17821361823734
-3.39561763220916
-4.00623091574873
2.47882554492287
-1.41270715755907
-6.1290144090812
-4.8769292937037
-8.21595651107559
-9.50930782368056
-4.10369144584454
-4.61828625109558
-4.03368787279022
-1.84389826873885
-7.19282700401386
-4.23016781679703
-1.54602999180076
-4.76692097789592
-5.83410470663613
-5.08511434902281
-7.22930642187014
-4.33025956975886
-5.65644057363886
-7.77292617540147
-2.59424354391169
-7.34283680411707
-7.62126100809342
-6.64209471571109
-7.79832379759418
-4.7892421684157
-1.74000716356333
-7.23474419116749
-4.85778621266451
-5.54119510801608
-6.07211011367511
-7.38801876761863
-7.37012380253423
-6.65857164419171
-4.66913146319766
-5.40216140293793
-10.4717286867009
-6.13751287929452
-5.38902565145452
-7.78438375519903
-6.17360638216239
-5.84863227824812
-4.07022358056771
-6.79184350290841
-7.41635467306369
-4.79042830692106
-3.7813640955369
-7.40788221986387
-1.5668772589328
-0.366364397972306
-0.585048481235745
-8.78937082741957
-0.648360738896119
-5.7475572584512
-4.58994854171719
-4.39634012114049
-4.68426775037858
-4.90558585560759
-4.93451324783295
-4.93550397960807
-1.75078776317323
-4.9469869355431
-7.63136957171432
-5.06034756353344
-5.06844424537048
-5.7474384553533
-3.71707678953739
-1.67392454112559
-5.46112437374405
-4.23644064274462
-2.44973868560868
-3.82747273228224
-6.18994153007477
-4.49462387832652
-7.58185461181047
-2.62290974682351
-3.60326371270938
-5.53329229364392
-6.05107108426327
-2.61905222706087
-4.20784400878838
-5.07189951493903
-2.91460383767735
-1.67360158058198
-5.7062709500441
-1.62869240395673
-9.83622187937665
-2.13668084249836
-6.78735404671958
-2.51567954466503
-8.52950448870345
-4.62606747599016
-3.96216831232029
-3.7338777838243
-3.78656643982892
-7.39270763843595
-4.75646045586918
-5.01043560100467
-2.53665591315388
-5.66371625494832
-5.86523765704516
-11.4922399566508
-6.74297908191256
-11.2432189255383
-10.8323883570813
-6.27096095849545
-2.24939160477084
-7.58689615741947
-8.5545561542345
-6.808986635032
-6.05980968662366
-5.17386191219814
-5.02707671951048
-3.74336826347499
-3.36895092038847
-5.50192578396611
-4.22305060884331
-6.26273813873433
-3.9894872087799
-4.84641656756155
-6.35026388711782
-6.52044395276915
-8.02116910398941
-4.20401506186492
-3.74495665020972
-4.71038247930919
-4.18704318840867
-5.41025661490991
-3.82044043868358
-5.16935551140909
-8.34494351130891
-5.15413017610005
-5.37801281018159
-7.56976576564168
-8.0648938682685
-6.39934303260046
-5.95798972608959
-2.97156148100457
-0.693991479140483
-5.65141722311671
-4.5525366763967
-5.53148551861401
-4.74666732117579
-5.47436408098865
-7.36212872990494
-6.21350425378099
-3.49261341030304
-5.49087608743386
-4.47227755831104
-4.29265767201307
-5.99514273785203
-6.59519348374999
-7.94866964101174
-2.31773418617585
-7.71371556689632
-3.06462559321192
-5.40899085130696
-5.16901382941574
-3.68235366896909
-6.78955173057047
-6.34066049851123
-3.62376133438066
-5.82802036757552
-6.30607577045764
-2.45927316063465
-8.41102129065276
-1.04640099420145
-4.25081696849584
-4.96297454187674
-7.60617038418131
-4.79416790103565
-4.76643999913102
-6.10693803126303
-7.1828883612626
-6.46984221942768
-4.18305925990444
-6.80876124257303
-1.13675555003957
-4.2956375398489
-6.45070667845146
-4.22790528164707
-4.60127433714927
-3.67084555633534
-7.3279369666928
-4.56527216182122
-5.40352376692823
-7.99058195698866
-3.25097716274312
-4.16526298432717
-2.4525209036227
-7.23065824934254
-8.97093644735793
-5.77808346675703
-5.16889919124075
-3.55781688241242
-2.60750563792416
-8.10892556788386
-5.13184991605007
-3.75887769091435
-7.94393406689764
-6.73246034524893
-3.62935179321284
-6.4865751566643
-4.70660284793144
-2.70065159245758
-6.14657609637317
-4.26427894079043
-7.92361029680163
-5.17661689254383
-6.96746682510677
-6.15723987725636
-5.70351747782966
-4.73423899183472
-7.83011264372158
-3.47913008485491
-5.60302859693001
-8.4655310632703
-6.939967318197
-8.82175679882119
-6.17963305390627
-3.74910985045614
-7.53679677249575
-10.1463381950351
-2.41992572860372
-6.48663402479266
-5.72353948970018
-10.2992046628864
-8.86930043462618
-7.70800690578123
-2.38632373491034
-5.24157920407108
-10.1059359654953
-3.73965402027898
-6.18117139954153
-8.77152996843526
-1.4728094419621
-4.60080288915958
-4.5573614560071
-4.04023123728882
-3.02465496411667
-3.99161482530709
-2.50053129448087
-3.74347973576183
-5.71892287628836
-3.67114221930762
-6.13299046113695
-3.5401288943198
-7.18106798084032
-5.51792304100847
-8.22321093128488
-4.78564555462038
-4.79171052148595
-0.283354131388485
-1.73574139998596
-4.41015774646242
-7.21261184217087
-8.14680027594639
-4.36765757618232
-5.58638589770143
-4.04002748722413
-3.55781324953839
-2.23867420630042
-7.29347376598203
-9.36475948046451
-4.56520354817088
-5.69150928257153
-3.47612049988867
-5.09045602874351
1.66685163289362
-1.79930945307009
-4.83859747535949
-5.45432145767002
-6.68923487941009
-4.90479834646361
-2.81955081143507
-5.57533731330452
-7.85385116857207
-8.15503069547269
-1.8532215576028
-4.56632542894342
0.108514072421295
-9.18880657326736
-8.29131305432867
-3.75194459028545
-3.1328954215458
-6.10238255387511
-6.17547455016196
-6.52680101899289
-2.9396631913797
-3.67398285349256
-3.86858928967551
-5.46503164507868
-6.62146963589604
-4.67615006637179
-2.21609024015409
-3.62098973411642
-4.69717005406181
-5.48421028099296
-7.39205133227227
-4.18630121571674
-1.53787436092988
-1.09109065069698
-7.06141552907633
0.135491341057853
-3.99150000918627
-6.36544494534228
0.687547052720722
-3.33379141864216
-4.21805549145181
-3.31469453779903
-3.76388301123686
-3.88673992405678
-0.632274574052944
-0.961467839359459
-5.30640716605794
-3.82649132461781
-5.21322389591257
-4.56443401826928
-4.98857265571932
-6.05950882352375
-8.99662251250528
-6.35739717348523
-8.39793584677898
-7.24971462052638
-1.95801622834016
-3.10615051954281
-4.97809794082324
-7.56661597503931
-5.43624266861019
-6.17037894763905
-5.11338299967124
-6.22375034111856
-6.02518631886915
-8.54198149028651
-6.565864236235
-7.21754012604286
-5.77766832771654
-4.58059732766464
-4.75062732597184
-5.20975116122021
-5.00515164670402
-5.95388677570346
-0.42624057955134
-4.91329432961847
-4.42363262100927
-4.29528568849472
-2.68999099236663
-4.00704709211138
-4.25448559081035
-8.4346922358273
-8.25400471868914
-4.2151922005469
-5.50565675387797
-3.41976856907085
-3.45676808901074
-6.28036462862703
-4.72727587549636
-4.67114096975129
-6.27560297450238
-5.11516589984478
-5.35456584587214
-5.42378986198798
-3.94164527869909
-8.31840594597387
-7.83333030255782
-5.89986300511643
-9.49740752185476
-5.02908681945434
-5.21598713915664
-4.65349143654876
-9.60204669361408
-1.88119209879672
-1.85845595082724
