-4.413030610487489
-7.541570682777636
-3.182010857310977
-0.47836920394699917
0.15284716668716036
2.0260505363370243
0.22961945904591083
-5.824178356719848
2.0433611382087276
-6.698187345456956
0.10577029324852641
-1.3216598581883519
-5.847332326562253
2.850510298279844
-0.9953949507574334
-2.1740822130264603
-3.090917162441538
-2.6585549219135696
-2.0357100104684047
-3.1652456449261264
1.132814237766785
-1.223557145506906
-4.141721666485544
-1.9435230665380454
-1.477022678555584
-1.1713261045804675
-2.891063987460987
-0.5110062619780132
1.074097061191754
-1.972085463010895
0.3522887121702503
0.42393746098298624
-2.035948204976306
-2.266277075619861
-6.346242661064179
-0.4154622335536412
-2.6933140838274436
-0.7946961820096311
-1.3565526972141122
1.1695874441477112
-1.9662976008210624
-1.4702645490308512
-1.3042473376603587
-2.6420369544433546
-2.9709836275581782
1.1090319697193225
1.3001589604187882
-0.7569273734595363
-0.3293725306485822
-0.8760504300797181
-1.2943494051894653
-0.1569248238132862
-0.11236041719592618
1.0641658665716478
0.3515596897884508
1.7934770500368127
-0.28496996201475594
-3.4132644498853684
-4.38956626953647
-4.978902201332229
-4.700776073633397
-7.488669101799603
0.3944070861256127
-2.6364826001773642
-2.179958893558068
-1.2137474834896282
-3.200656141949103
-1.9703344841235986
-3.977317386732764
-5.470804969599034
-5.5349965820931715
-6.447778380184716
-6.688184297167093
-1.2833910043465522
-3.2678075812399485
1.732923558138991
-3.1953570473298436
-3.6680537625928644
-2.2836893280689945
-0.03452179042103283
-2.1009754624191386
-2.26984326507769
4.312378384330036
-1.917139636929729
-5.974022345976095
-5.89247080456852
-5.8515841948841505
-7.40854027950304
-5.7667774383893295
-2.725159196197229
-4.791004668787605
-2.572643380257141
1.9465287661663402
-3.6657547310746326
-2.270441412489708
-2.9861511352177437
-1.3163891958477008
-1.681676713272837
-1.2943444433258744
-3.5207404831414224
-1.843167062887853
-4.382991476530063
0.22961945904591083
-0.2929047010979491
-4.079436818746275
-3.2243474634554925
-2.1411219340290595
-3.232885427784957
-2.4415613746549933
-2.9005049107627516
-2.038042304936925
-1.0904766262422616
-2.5969656635953147
-3.606192112057848
-3.1798887636279987
-3.0319450780696475
-3.3196499701703654
-1.8989138104975467
-2.2559014246349296
-0.8636825832506788
0.24954485138193042
-1.4106274311959737
-0.5452839437356104
-2.1308075251401926
-1.1584574320696044
-4.0465966609930275
-2.308810740240029
-2.233253163055244
-0.9599075057325933
-0.6878425114551726
-3.1345858428191646
-3.219856235592388
-4.455636215429451
-2.039096132134932
-1.9661294702784695
-2.2164988367560103
-1.942271268768353
-4.017318587397404
-7.582986185804235
-7.063041132080922
-3.9242855774621117
-3.7405304520723863
-6.462432778375958
-1.2741675301345883
-0.2091468205257843
-2.0605130711818536
0.10530760060426364
-1.0944268405616002
-2.550489437482826
-3.7096888834415616
-5.2847688041943925
3.4849943395159273
-2.7206659468878547
-3.85037321687705
-2.031248338737515
-2.054172718254074
-1.4520169360113577
-1.697898319137486
-2.7699011752113982
-2.337183011347873
-2.28486662933746
-1.7223709267295786
-6.6709261837949025
1.0499284110224545
1.0726645589919361
-3.13644303310784
-2.576909391098886
-3.201763770947589
-7.238483893300704
-0.8065684184982909
4.048916145308575
-2.618464625080343
-3.0342443968234547
-0.42789182044993496
-3.421358366529026
-3.6881694142874277
-6.4860985286393635
-0.27832669748793853
-1.56312593663938
-2.1782040582020152
2.918035874396694
-5.537402172075744
-2.7283088265771545
0.7678967523758478
-2.5861041393898496
0.38521937744510243
-1.1715399374905375
-2.405395564729359
-2.792878221868572
-2.054172718254074
-1.4520169360113577
1.3186535101884596
-2.6488743765260447
-5.994904574269979
-3.5207893971918134
-2.6693282120753774
-0.43152667306733433
-4.093503858388304
-4.1739586688149855
0.4200658827306886
-0.8299468374950584
-2.783051988034986
-0.41824411310433957
-2.7752181251954555
-3.3094180892793705
-2.097518516811902
-2.110123210181462
-2.3803050311147675
-1.5294573638687239
-3.175084034526929
-1.0628413961555305
-3.675395143115623
-2.76040688204413
-2.3212218649514513
-2.5905104023063603
-4.5779964682607535
-3.4417071795854977
-3.8039231546178063
-0.9420980476612166
-1.085326010338495
-0.2520233179988091
-1.5176647957227452
1.115884196605471
-0.5971643084314947
-2.5687399784084812
-2.995449369826052
2.3052187700882394
-4.87502093753133
-4.268102617917856
-5.112406212591575
-5.357176247135248
-2.9333870032889364
-1.959628093122942
-0.5502299688756096
-1.7536093931294097
-3.1460848197162616
-2.007619525468545
-0.9624747118967116
-4.710526712603238
-4.475944639646405
-3.770069772381537
-2.3041694621697317
0.40595092542664707
0.23704297035100447
-4.253067719022285
1.3473234861261516
-3.1637773659820563
-5.766168557607709
-3.632256554469167
-1.2880621335823794
-6.325189990295883
-2.888845226209331
1.396842145651945
-2.539952826233735
-0.791593442281582
-0.5194840199698851
-1.1111528364077845
-1.0813043727133
-2.079816723257458
-1.8592358209999262
-1.0390209982090435
-1.43427037336308
-0.34690358903254537
-3.9330457003462027
-1.5694572556077182
-1.8520070524217225
-4.527138664454746
-2.0062527751267365
-1.620957875535702
-2.595208108701601
-4.4821148370684725
-3.5741765242052517
-6.455581616572263
0.6630016146893482
-2.458883482669414
-0.734560092915274
-1.8616257092612052
-5.589406216856727
-1.348374358221381
-1.1571811543949415
-3.4889911184861555
-3.108574937103329
-4.267669251666559
-6.119158148433891
0.8498805526403195
-2.606870520504043
0.12141018166250053
-2.5442001597022346
-1.6784474050921006
-3.628071037954809
-3.25537241775572
-5.9803296403786055
-4.379427893280454
-1.204185544957372
-4.412492096182294
-3.618237030177134
-1.9236576171156046
-1.9515423107341108
-2.410866228687846
-1.673556841420691
-1.093265024230478
-1.2177252247664745
-1.1036967991021518
-5.03046505193487
-4.960486827539939
2.216417606205749
-2.932429183391335
-7.131456934011589
-1.7785283736839923
-0.7223374623284816
-3.4547698930309325
-2.8526906462852817
-0.06628980554892165
-1.6107396452130864
-0.6166256239219446
-1.9527892517542749
-3.1095692935620844
0.2183919592206816
-2.3523002082344666
-5.7428944994456215
-4.972547529804164
0.29775455265083267
1.260247620347626
-1.893600683446609
-2.099352457072622
-2.0084930896589572
-1.7000721752583887
-2.7406853684122376
2.320597358348305
-4.208036743445113
-4.135158342166669
-3.0269197285361034
-7.601992197363409
-1.193074652378709
-2.82384068020737
0.888365006044404
-0.5265624841461005
-1.0673146557812527
-0.5491586096824481
-2.1312958028913784
-2.481083206812158
-3.112225153263109
-2.731118195527638
-3.448343717069951
0.1329025845538127
-1.322440210642734
-2.1180124012359944
1.2734610629676089
-1.5550243590953123
-1.5437218123606526
-1.5873490052291248
-3.086972075913028
-5.064833576126444
-0.5296021797468495
-2.3246005129446567
-1.4939062479245884
-4.3746517306569626
-4.196856606642421
-4.984597167075362
-2.410062473969623
-2.5112310131687847
-1.9946067643810204
-3.7190343196100883
-0.7205450485975388
-2.8628123926493134
-1.1197122874116388
-3.3883239332063004
-0.6851170542992902
-2.0423542866915936
-2.613423807142964
-0.9681656855272974
-0.31733607272287717
-2.1520451232239046
-5.161929148091362
-3.4240684491019073
-1.3115521278481714
-2.624279533789241
-2.40108012592551
-3.6891703458374687
-2.044935848861037
-3.3664151337503117
-2.203879161662267
-4.901765022342054
-3.6567522913920083
-2.671785949601224
-5.9040237192127885
-9.56188332543492
-1.0410948004796938
0.9739136671352796
-0.8603749952104718
-2.1639142512961245
1.0583793248829616
-2.203917806349019
-1.5849781373664
-1.5428862665121748
-1.9571815871350176
-3.577546989289096
-0.27563012328790415
-0.569420762432862
3.1549113054219973
-3.564128628817097
0.30280098278812734
-1.6406584293402149
0.3674424271059244
-2.8740338839759203
3.1030969217606446
-3.3274159096523173
-0.7424836450493248
-2.968434430036275
-1.8280619100649023
-1.8206017355427055
-1.5899320640021308
-4.852627235665834
-7.816024563905844
-5.463660808635451
-1.821917900276208
-2.275447194763729
-0.4381051325526066
-3.1459752191422634
-8.396062881097173
0.3781003306433352
-2.5813372801155734
-1.7672945028818283
-1.1886940239225832
-3.2870945039964807
-0.1274951992300911
0.6061322978182191
-0.06589072751903294
-3.181517164132311
-1.7407506464904123
-0.6827743120129731
-1.0954666913856141
-8.752876702330175
-1.512705850399102
0.047029081593877774
-1.933336949880394
0.22780578633155701
-0.09063419336982409
-3.0775312842569296
-4.244292810276141
-1.7830107385139016
-9.144106358992085
-2.905959532897564
-5.876242884322317
-5.542364825096386
-0.28240532046894784
-2.579976003678502
-4.058918235616694
-2.0940157119966654
-4.772604100409686
-1.1485570089879416
-1.491755612650112
1.6045802108519405
-1.3533259004972742
0.3332697012723242
-5.5553335648891204
1.5471594782368534
-4.291090265036759
-4.330407013534865
-2.0856207563601226
0.7795723154411582
-1.99630573215669
-1.7118568965689303
-1.313450220932444
-2.3287906652109007
-3.005025506888933
-6.770681038757225
-5.186551164178402
-1.4113398819771255
-4.44011073406493
-1.4957605018414724
-0.3348205867894162
-0.36941894381999624
-4.072362844464526
-0.9752141899096839
0.5486294786059133
-2.505680078194019
-3.109327371484257
-3.06656826571611
-2.5805623790773122
-4.517124513708262
-3.646356743032879
-6.438119205953322
-7.284856366231634
-3.9433309905620635
-6.2927886382254945
-4.037833582675987
-6.3669104935456575
-3.5455507022719743
-1.5711630926713733
-3.733647271813218
-1.3938418699145776
0.03065772088527185
3.018551810821349
0.10950063935318571
-1.8152516536922787
-1.5889681524924855
-2.3525381084341572
-1.931237633758485
1.2514880908349273
0.7960834806586868
-1.2402096453363414
-1.1254394751660075
-2.014836797093507
-1.1601560294349935
-1.388640657505951
-2.8612338036398417
0.5791426341137933
-1.7719209837818324
-1.5936144331129731
-1.9930634551484758
-3.3838363703710637
1.5325418673930251
-1.6200818261400907
-5.106064942271651
-0.8261991381649585
-2.3029503418514294
1.3451254016824217
-3.6423180997502778
-4.486534438319385
-1.6580677430913808
-0.8391550146760559
-0.9860750036600747
-0.62309489525998
-1.9212333801954162
1.0437932906528642
-1.737691142527351
-4.477837463816248
-3.165729488891353
-2.283210325601449
-3.704996835322433
-4.0168095762769385
-1.172746540569222
-2.874347434305059
-0.49964768411448923
-1.6777281477016752
-3.511039648643334
-6.452055306957238
-0.2633379286337101
1.1123740042085637
-4.1130245899553355
-6.7339589117216
-0.9862046055743593
-0.14851679160929782
-3.289988136534397
-4.868227114155613
-9.333781935618031
-4.661808374447962
-5.325577167906053
-6.007004657046751
-2.8759574106130588
-0.49055306219250683
-1.5409767332530522
-1.3798151485881875
-3.1954528338580372
-4.025964160896744
-1.8097937031992106
-2.836717386704878
-3.6272650793107517
-0.8019819296555684
-2.717102523190366
-3.9277537016736024
-0.14279673679648483
-2.2423256125240227
-1.2813002658052184
-3.113067595849743
-2.234427349444093
-2.871909180439563
-4.078524409720418
-5.023503421767567
-6.800705646371838
-0.8154590106761268
-4.669412143632902
-2.372218161170405
-0.5547694876454071
-2.5005949034497377
0.5888760614132577
0.597224121328044
-3.5191571305236495
-1.1093588357979194
-2.932973591246085
-1.7935229596602371
-2.0926739374927594
-1.418707697089161
-3.0981892329710172
-3.8512558711202436
0.23655654856330524
-2.315050684871804
-2.4047958964426397
-3.474908721918606
-4.850216094091338
-1.2817486130332294
-1.897478940620686
0.8097885362390491
-2.903696761458801
-4.739183474794025
-2.7848596927343614
-0.6934614651412357
-1.4877663346377068
-3.349159937125069
0.20939622500812372
0.2572526747486746
-0.3034938457956877
-3.519122528341731
-1.6730413638775974
-2.9706850856797016
-2.363443192645536
-3.765912712670276
-2.060271138236778
-4.634666196065818
-3.433715399114137
-3.4890973970172734
-5.542446216687281
-1.2908394662665135
-2.3000169653971736
-1.8047473136848877
-1.6564395616662215
1.2453733770600226
-4.604526584891427
-4.07334611466769
-1.7961611583305332
-4.64772174329725
-3.168811618074702
-3.0611018187064065
-2.4471049630198403
-3.6684180045725143
-4.134165063506469
-3.983176038603551
-5.441384704174531
1.8851796854294565
3.7593310529256576
-0.9825605203564751
0.8902970778676811
-5.367973045068733
-0.47555421742991677
-3.742810456709557
-2.438293527445991
-1.1470683357342184
-2.8822375505338997
-4.864270007945911
-5.467427475687157
-5.217191746936262
-0.15594595279980805
-1.790017049933865
0.0761618152009943
-4.084557621872558
-2.3141108314837147
1.5639783018256221
-1.7677301845546631
-5.015784530386991
-4.46512098497286
-1.3334833912966175
-1.5577295370416144
-2.1399225270731193
-4.047328671852611
-3.902348549028277
1.1682207529091904
-3.5948814885352274
-2.7067706774037896
-1.1784576903512753
-3.8011366305664422
-5.857186730234478
1.9539689914032279
-1.9012209769218493
0.7047568721048139
-5.07785898852034
-1.7355771811321787
-0.5635670136741886
-4.902752372168908
-3.3963392680663915
-2.252396938084107
-1.5581990420305547
-3.1792170078220106
-4.463479701401662
-6.996631652364194
-3.9558505684197924
-2.233541718676489
-1.9606402138963406
-1.8703388401686836
-1.0432198215626016
-3.2552788712225205
-2.3758338498994767
-1.601436187123101
-2.7534689784705257
0.9384862155246033
-5.373837707325596
-3.283610991965205
0.2685611565613867
-0.33819580792235676
-0.6997585041119565
-3.7982419112737973
-4.39000648132198
-1.329924455976313
-1.6379991710487116
-3.8061177081820907
-4.59578811876016
-1.3008831070143272
-4.8556079091763955
-4.3856241985680375
-0.5337197807555794
-2.449754040905209
-1.5899320640021308
1.7733144568805153
1.4043090461780277
-1.5823619708292318
-4.093503858388304
-0.8406344127794869
1.0061890667512516
-1.0958105401263054
-0.3188826762435855
-3.012637432570114
-2.2634575153863
-1.2996295542169998
-2.723927070300252
-5.874871831622392
-7.8382761860365155
-2.0228925630783468
-0.3208175302930721
-2.1441292120072046
-2.772305063095591
-1.1338569833762207
-0.5337197807555794
0.5252659518841393
-1.8339850102994855
-2.449754040905209
0.538866116901485
-2.000535385027987
-1.3088166931124023
-3.4332888418465783
-1.1832070768095908
-2.9676974987946663
-1.2111946223119034
-2.0807641760522575
-2.139020336184466
-0.33376750083476
-0.27615758931005946
-1.9557692636897472
-2.5648968953113602
-2.317325724591693
0.37872087626577006
-3.072980705846635
-2.3673219396365446
-2.981983348001095
-0.5766009212234492
-2.2484226465378576
-2.344616222249397
-3.9403710677825488
-5.112925975560378
-1.0538401328026972
-3.8893764176772674
-1.9110673640335003
-4.030069387217837
-3.2600952478113263
-1.6100353059228043
-3.1562260852428454
2.4382911822246283
-1.4131557486184756
-4.075751113696403
-4.554000492931626
-3.53355399564368
-4.1693257892761695
-4.1284223180258035
1.5388325534216727
-2.5554873082781118
-1.5646199699163086
-4.401425645814748
-1.3595960676584182
-2.5009087590427974
-7.478716107749272
0.3246930113933343
-1.7010850850754562
-3.831126077692107
-6.870838290988566
-1.7071255625778339
-2.633110595057922
-3.672268408736552
-2.488666882885795
-3.9718082300013795
-2.233209930151406
-6.573596051611996
-9.349565803136283
-0.9673273231955424
-2.6100922737086227
-3.987891639734968
-1.3619518489853104
0.4135240692042029
-4.334697231419476
-4.838482392337578
-1.7013580646442987
-0.6206152108831539
0.06803787956673821
-3.3956383818304214
-2.706602943891962
-2.7746411743527712
-5.021316169321373
-5.353535185440339
-6.708973355500597
-0.9919730264724873
-3.854155223507983
1.2431070961233717
-4.103256667443222
-0.0037489725860144446
-2.388651171409327
-0.5286634430469239
-4.426991150739441
0.2417465671328557
1.851282725188992
1.7960183324251895
0.148956226319791
-1.09956887122355
-0.16798371549419536
-3.23710379601166
-2.768196471120331
-3.5480438367309683
-1.8409101480312453
-3.9649886776384364
-2.3785265998974707
-1.0129548694663453
0.8102643173991461
-0.5255952625168094
-1.6336798207902108
0.06754984687091464
-1.9656538547842848
-3.2979626395341315
2.0331407105108013
-5.3034117743922256
5.229808961136264
5.576564099176234
-1.3886741350817895
-1.3477376081064276
-3.982374069585666
-6.821288346579131
-5.780129878656689
-3.4419679524379707
-1.6063046102666354
0.6637526556419151
-3.3543811204075658
-5.32713122678163
-4.082935222636625
-2.0627056098765357
-3.5288832381920905
-0.7759055763854231
-2.4945741997681887
-0.7680576846403062
-0.1272831925293599
-3.4955747977200984
-2.530906078401944
-2.0850315096542262
-2.03185884799961
-5.535600694928272
-0.27999056845048864
-0.6332762050163765
0.01486518599900482
-0.09042566891336051
-1.4655094967566018
-2.9521018558934498
-1.0461331905278473
1.4651484872173635
-2.7922503148999107
-3.5661796333056204
-3.6655799525602033
-2.520827961898633
-4.130145903033191
-1.6860543814624276
-2.0757548589857464
-5.846152735213289
-2.180583012453008
-2.719648812453915
-1.462408078477715
-1.0610842806170495
0.2512901923893252
-3.2363312779129507
3.0162893440709655
-1.8764193667056979
-0.9158119945284464
0.36888307654540115
-0.10910905559327558
1.703386342797468
-6.289750682089085
-6.143962499894874
-2.367687257161244
-4.199973784958515
-2.768340344106237
-3.3941692023224395
-1.4195869537957677
-0.8034000938705923
-6.449823916529131
-6.924802864656998
-3.9022374093636425
-2.77934810161742
-2.3130893333225946
-2.4991519787661525
-0.6711718786286537
-0.7639788046465105
-1.3427170978848217
-2.7148431204242964
-7.5849242454422665
-1.3220337889315519
-5.033346177095647
-0.5178027771040222
-2.908067728087996
-3.6881694142874277
-6.4860985286393635
-1.793665089612778
-1.6832232093880082
-2.0340719777863367
1.6363165068873444
-2.8596888914151273
-3.589012605649694
-0.9003968338494137
-5.102913590223346
-2.604236555985078
-2.2536513202836033
-1.9045891301886109
-1.868410508992807
-3.1567199137319584
0.2821470376274178
-3.8460442063038043
2.7788135777480645
0.4565635716905633
-2.1925928956318206
-2.4346368110238426
-5.1323127555031425
-6.965070465291654
-1.8469154342841234
-4.199357767803732
-1.5727023600345191
-2.4748769570282825
-3.078220200019853
-2.3852902429342038
-4.0963318864204945
-1.2282600774327264
0.8730308316858464
-0.4961127381371031
-0.3946861695697123
-1.7336729116997385
-2.2939379748700732
-1.8409101480312453
-3.9649886776384364
-2.3785265998974707
-1.1790670115873536
0.7427699955428323
0.010734160079188398
-1.333939099176449
-7.730470741364937
-4.517319426770101
-0.5758802308750889
-4.432842743018736
0.8789582062062424
-3.9038822045450567
-1.2552434475524517
-2.793484548547693
1.3441032133999211
-1.6163136728553933
-1.1754818836418102
-2.342433527790521
-0.12669702777103417
-2.0550412238974474
-2.1645078107865023
-0.13349104390896158
-0.05633030734079332
-2.5952361403569753
0.808855929683036
-0.6574620610116549
-1.586234471705448
-3.879411537970347
-1.9261338229444036
-3.992157382911475
-2.3688208383782423
-1.6629415157259793
-2.9600235729814117
-1.6551156648781915
-0.07947713476839734
-2.5545352984712304
-1.8414119237770183
-6.447127869219997
-3.7583288193352207
-1.3903867761973343
-1.6577543068905427
-8.023282870607813
-0.911882813188788
-3.5323948624752006
-2.664980883572466
-1.008841816143227
-3.3903923263435325
-5.107412250287411
-6.169932562545628
-1.6649002089567777
0.07862278934663844
-3.1315757146791476
-3.1477130066247194
-5.662081312904123
-6.85361130927414
-0.4130141946359889
-3.0161194734522305
-2.1919191435016065
-2.943380913499577
3.2046979666615156
-0.7550602135247084
-3.2484321395180817
-3.483932470639273
-0.9072525585250525
-3.7920180263055743
-5.334427288981514
0.75666924828873106
-2.7519104688928597
-1.774823553800814
-2.7669697177487187
-1.9999064443371002
-2.1184732756779816
-2.185447774297462
-1.6093480526390267
-3.2957498660972577
-3.0900280266675884
-2.185447774297462
-1.9706096224220677
-2.6189089189217505
1.0390529760091916
-4.812960136677475
-2.065642740327649
-2.9732089931619305
-3.6605597777638854
-2.0771764141756286
-2.9762631257974514
-2.2630071407210104
-1.5022327535246125
-1.4128735399036791
-2.1644391401200718
-1.3878120893070627
-1.321220086370548
-2.391760496915441
-4.111186152208731
0.24247872351299313
-3.996627927915011
-3.4729691217276635
-2.7504632431686185
-1.860563519356213
0.50184894806593106
-1.9351140342607702
0.24788877364921336
-4.168520504788737
4.8065263962764435
-2.805711132399336
-4.299145628266607
-4.995096936295553
-0.13614213565482572
-1.0054356574365133
-0.8005108065483545
0.35824366610861186
-0.5264320829042403
0.4292802027670445
-1.6204453594057817
0.7317556816226846
-3.4332888418465783
-1.1832070768095908
-2.9676974987946663
-2.0807641760522575
-2.139020336184466
-0.33376750083476
-0.27615758931005946
-0.617249089575737
-0.5229491476245476
-0.8407005881728354
-0.34060144439755896
0.37872087626577006
-2.000535385027987
-1.3088166931124023
-1.2111946223119034
-1.9557692636897472
-1.9445149826867503
-1.2540288024074122
-2.5648968953113602
-2.317325724591693
-2.064317882390164
-2.6025277803920073
-2.134863460713698
-2.7249308896801963
-2.3673219396365446
-3.072980705846635
-2.0451893441698243
-3.2011383042473764
0.018027747866632318
1.3080902249655457
-3.4349758087070468
-2.080316206210869
2.3394164368662738
-2.5847215647895148
-1.667816584269919
-2.833843024717636
-3.5261652399136674
-2.1742240141813394
-1.9541229741292385
-3.349113763724758
-0.7778938859385285
-0.8778174337240684
-3.014539477024752
-5.345960385395664
-3.0813781962258715
0.41302592223951085
1.2805296316807007
-1.887130045453808
-3.5480438367309683
-5.077900619454341
-8.010279988279478
-3.7255565979109835
-3.5308916434749986
-2.449973186204777
2.24553211157782
-1.90986586435486
-1.5717541262838701
-0.1084697016318584
0.48518502682336623
1.7225127330480954
-0.10284471019073423
-5.187632639029403
-1.4025409138045404
-4.4532048246718725
-1.1684366230354843
-4.431430870532444
-2.6128004564910072
0.020353946765393503
-2.8703288253045796
-1.6222754795739962
-2.646452542367929
-3.157179293638878
-4.038543805819915
-1.855082852873666
-5.033285448290707
-3.3956383818304214
-2.706602943891962
-2.7746411743527712
-5.021316169321373
-3.0341125807778244
-3.6645654931338885
-0.1245891733557626
0.11428254897741019
-3.967780973630715
-3.0133610936701256
-1.9457181378460782
-3.7044434835788866
0.7491489848977816
-7.140400500151917
-1.7291963725425172
-4.4475082390534135
-2.641194395166899
-0.31944446103293395
0.6960609752166974
-2.0253303409817924
-3.317784733901442
-4.446965657608538
-2.934743019210342
-1.774998502945179
-2.9108010799772446
-4.531116584649091
-5.485899831870361
-4.453522724631971
-4.95902846755216
-1.1495800856184268
2.3394164368662738
-2.5847215647895148
-1.667816584269919
-2.833843024717636
-4.182713191005659
-5.082572283089295
0.9021402746458774
-2.4676083208503057
-0.5876747795887475
3.084887596329415
-2.529293522400948
-5.48798069899877
-1.4949932926071021
-3.649588693976071
-3.675395143115623
-2.76040688204413
-2.3212218649514513
-2.5905104023063603
-3.175084034526929
-1.0628413961555305
-3.8039231546178063
-3.9006642899735833
-4.152402063527054
-0.6129344864400924
-4.980078525924863
-4.1167382774819705
2.790980789201977
0.5293247704633207
0.11498735732312501
-3.3121880406101285
-0.6573840747501718
-1.4691397720579071
-1.620640731444337
-1.1450771986710513
-0.28253064844657466
-3.9376729224544
-0.3349269107891063
2.1036562993948706
-4.714458907352549
1.0277989907969318
-1.2248474659315391
-4.01017142000532
-1.9885853286847108
-0.4458305940765079
-3.2828803246209652
-4.282062789238147
-3.4150362672140924
-2.0485096608629005
-6.322309651933048
-1.508687343366418
-2.944446712595599
-2.510588099022466
-2.1424910815377136
-1.6951264365016752
-3.4481015694325556
-2.130087234023119
-2.1056771763183515
-1.1151058324553438
-2.8211441600387888
-2.4235195630173787
-1.8378116533861268
-1.2446877484815213
-2.7224176636816653
-7.543533194550395
-2.7246308377465334
-1.9384855106171244
-1.2614844982022502
-8.321707807195635
-1.0386186079580497
-0.49675143505881214
-1.8335388865468945
0.41986476747359053
-3.456441182108749
-0.7084098451261014
-2.7753036798025095
-3.6103843335664796
-0.9982499097760171
-3.7685974194755794
-2.4086911199127012
0.415789105796973
-0.6403829616968169
-2.6893057598017536
-2.854881900124097
-3.8538935041362055
-0.7509851913610867
-1.1154820585150893
-1.951807880792677
-5.623479849989154
-5.671969812848165
1.268622084633715
-2.9389127695009125
-5.909462945544173
-4.703014865325914
-3.723946014770097
-2.28486662933746
-1.7223709267295786
-6.6709261837949025
1.0499284110224545
-2.086730277906045
-4.336950061172632
-2.5716450407428098
-0.7122285783977756
-2.573822705052634
-0.8743188954981118
-3.3805457652085247
-5.446240273050468
-4.848936226279153
-1.7940791577979076
-7.016593554004639
-4.637397858693753
-5.155477682879491
-5.130093839133344
-8.295527513372761
-9.285389041134268
-5.107924916340904
-1.527891897107629
-1.2320167312332873
-5.036176859915575
-2.320475768539764
-3.5203721861028923
-3.34968417346479
-2.3867231477120283
-4.800502666446337
-0.23052421221938377
-0.8360088249219013
-3.4698291187121373
0.009531200587669415
-0.7135032180772455
-1.033318302585888
-2.28486662933746
-1.7223709267295786
-6.6709261837949025
1.0499284110224545
1.0726645589919361
-3.351712446031997
-4.367957843698759
-1.266645709943258
-2.4804089574638732
-1.9812665369713756
-4.228930448142313
-2.816184039715633
-4.174787129760009
-4.453986255376857
-4.539266602208967
-3.28350633503943
-3.5861466195856573
-1.9350697460597561
-2.325988901007193
-0.45562551014103064
2.3394164368662738
-2.5847215647895148
-1.667816584269919
-2.833843024717636
-0.15724270430734902
-0.5344441050859757
-1.257954565206442
-2.8400668827911315
-0.0526141801773439
-3.2892295471187714
-1.3818460988893826
-3.0357676092302293
-0.0716094373632608
-4.636321244776477
-1.6769143758273362
-0.23487466462516676
-1.2780471623600207
-2.664938455715568
-0.5578692211608678
1.3983056637912168
-1.8527035107489442
-2.746283037312323
-6.772431650340144
-1.0352928606914633
-3.7064764180228678
-3.5480438367309683
0.17676329195852108
-2.2999419674109247
-3.3453360264868732
-4.265336171676251
-3.3045737090679674
0.1124072402959656
-2.5812464095620444
-3.7337283588626002
-4.414109493007929
-2.3832404860718777
4.018003740553089
-1.8797595187640834
1.365113399739043
-0.4799889039845931
-2.589051097074768
-5.020438398497823
-4.085835914233767
-1.331160424107257
-1.754952604604076
0.3147872354837009
-1.3951891371151937
-4.473124946949435
-2.360217763501123
-2.5039075913649467
-1.876828166550204
0.3210321896198982
0.7459038866356978
-0.897912973329453
-0.7015985030776994
-2.5652359699710026
-0.1658496470630962
-1.008612053770298
-3.7352760354012147
-2.908067728087996
-6.4860985286393635
-1.6017819761314018
-1.1682502105261834
-0.6919002422992371
-4.7180057075314235
-1.017509315359514
-3.696960919823719
-3.126254857933569
-3.490114915675894
-0.6670854799782604
-4.571202586230179
-4.81114414714143
-3.5480438367309683
-4.333250138924694
-1.4661747429380407
-0.901780180628121
-3.017782190672321
-3.3671043876957603
-3.73409837491973
-1.7447401545365537
-3.7129556051519406
-0.8105325010123782
-3.110952879978415
-5.0042760981322445
-0.628011041037672
-3.031548452620976
-3.5957330113714723
-2.9333572362151883
-1.8849312093860984
-3.0954501673906023
-4.180075225481169
-1.2077374152979763
-2.3733602451015448
-2.094950655877382
-3.5991428735555844
-2.2309841798573813
-2.815061668154558
-2.7424548056419944
-0.27643991220020847
-2.4344847999696264
-2.546735904923004
-2.676584390762122
-2.97791627737103
-2.6151435892632633
-3.333985730458999
-1.653439646219177
0.0011145607888066785
-1.9821380153342367
-1.88391069303749
-1.5805065274503565
-1.2340951900287764
-1.2340951900287764
-1.6260659979760088
0.04274540041365592
0.29354153019766405
-3.637213740908756
0.30482415442411187
-3.6113652379353507
-0.1989602240182965
-2.1795794661477585
-3.2268731991593507
-3.0868320030118386
-2.727758472517311
-3.0064300075635573
-2.4536438673207464
-5.425196540197079
-0.6053349392842726
-1.9013091629287835
-4.013498225704759
-2.778389356329248
-4.439449341854668
-9.840735372501179
-2.717074599418986
1.4690168488928306
-2.300247061225573
-4.901918454922377
-2.0914662717289993
-3.2094901529413895
-3.2035043887136636
-2.625141118869686
-1.8571269832756465
-1.3826696372639535
-0.1154586061046578
1.015992419191035
0.8872704024756702
-1.8143670897121431
-1.8867770541014048
-1.2340951900287764
-1.2340951900287764
-3.5959005618936
-3.459060989097296
-2.3907688322575575
-2.567270899011094
-3.0735967043353596
-2.439281454042724
-3.223574104136693
-3.908553144696252
-0.2800499580067249
-1.8734065953341315
-1.75362095387901
-3.365623058447775
-1.8325585535048994
-1.876329396361732
-2.6134967895676335
-3.459060989097296
-2.636393341803693
-2.398754509754807
-4.97675448611891
-5.213400632476522
-2.643725946719274
-2.888684903328895
-2.567270899011094
-5.384396512123513
-4.692884809037952
0.53754435315641
-1.092194877243627
-0.4082261103970564
1.0221751494166351
-4.064324335148905
1.6765071950498596
-1.7576116474203667
-2.3526351684218634
-3.3444588618021456
1.1895596844975524
-3.152654176859004
-1.226682917669658
-0.668914925401067
-0.16701045119941155
-6.816220853103535
-3.091537835999679
-7.770967650697916
0.6086435969316956
-4.68195477572345
-7.047729947487733
-3.8776671294816767
-7.0437313317334755
3.151963894884393
-2.4712676670765967
3.151963894884393
-1.238839546373279
-0.9981896667559603
0.22961945904591083
-2.194605531434184
-1.8297883477951236
-3.052855492957092
-3.9492337274145553
-0.13587552395315491
-1.0501379584552688
-2.3268112872576383
-3.18072326155016
-2.2518423008657154
0.22705123951929018
-4.039839710082255
-7.250096971277573
-4.736554213471158
-0.1610338601934843
-2.363743279921955
-3.5899352522186665
-3.8090720163452483
2.008278889357259
-1.0067650080570403
-2.6174992448914374
-3.29541304745002
-3.834537498983622
0.3748037068717365
-3.2016990410376165
-4.544678943570109
-1.4416177114468172
-1.850140053381444
-2.5172447645380887
-3.6909666613845054
-3.2955374150218355
-3.9696374126186798
-2.3362120907486945
-2.329085262342374
-5.706620799436152
-4.704372553793909
-3.343451313766531
-6.453288851653151
-3.9526083535824537
-2.2051802453543936
1.3886921590610262
-3.245417115612392
-2.0437232593025842
-2.23839439029262
-1.682051881299338
-0.49484570085404944
-0.057606803313083633
-0.9805032518929391
-2.378590113548911
-2.956856807582897
-1.9584274789320195
-1.9264976791001716
-6.014143656726914
-1.196823276441463
2.7545637641070524
-3.9007564946524926
-4.609721022188226
-1.6910310065424292
0.19584346690251522
0.408455278275968
-1.66398074861532
2.3241085617247923
-0.8340647035281724
-7.150668975413102
-2.318764932212617
-3.4366293382582147
-9.696651027600803
-1.9917099738214752
0.6955952216194909
-1.9732225207253098
-2.9080319113146524
-2.836065287355635
-3.267233272945789
-3.4807814773616004
-4.337853488644484
-1.0340954800010376
-3.1885274999823863
-2.2820555629700126
2.4470887398841734
-6.553207935359092
-5.83130511641151
-3.653766762206981
-0.7340706040153341
-1.7649915796198212
1.3385922054964559
-3.539804024932866
-5.0305284540732265
-3.0214780455106838
-1.9432016495245035
-4.0979821672956005
-2.1032903201737057
0.5213351984283816
-2.908067728087996
-2.054601828980556
-6.4860985286393635
-0.9589789088796632
-6.182633607035065
-2.5270049038433795
0.04175969691318134
-0.467077090227224
-3.015604561033479
3.67584979863821
-0.041793069655075864
-2.3665852432028713
3.385673348697086
-0.025736194108969775
1.2253677056037788
-4.461672833140615
-0.7919325984050813
-0.8694195518603611
-0.5164032338719582
-3.9710520675447842
-6.196597963671963
-4.34414827451341
-2.263360060118829
-0.15863385719678688
-2.908067728087996
-3.421358366529026
-3.6881694142874277
-6.4860985286393635
-6.281771818923935
-4.273925267121533
-1.1655117179285535
-1.4704776284626664
-8.104299374431884
-2.9854342617064114
-0.6305831236012849
-2.5434161330260814
-1.3786168393425835
-2.562416647709903
-0.0433952274221718
-2.1588466536723017
-4.419706356060707
-1.7921781093910822
-6.008455525933651
-4.504305294563405
-2.690028613121405
-0.5546676832034941
-0.5805572224819753
-0.5624538150361664
-3.003067047814239
-1.2156114109532865
-4.043490966394077
0.44326912380632455
0.3829083127927363
-0.09810058240582042
-5.869045673468529
-1.2856112479534503
-4.253577617695368
-2.301378815602903
-2.86775978965145
-3.0837282302553772
-4.06168298307356
-3.8584145050265306
-4.252481187227963
-3.569611838038002
-3.061580317340993
-7.335616164909885
-3.0017012373407375
-4.049455430873046
-1.5142465143168264
-1.7558378804179826
-2.39143149252237
-5.84398095726068
-3.827080924829835
-2.9849347095096452
0.37855294643132786
-4.318574741553595
-2.819588118370825
-2.3821518385961626
-1.7621740375563792
-1.384667274822139
-4.236485552282562
-4.499727088074004
-5.454084863476889
-2.286860807555618
-1.4783571018952923
-1.080990241206284
-2.618464625080343
-3.0342443968234547
-3.043628026601741
-0.18826177606356778
-0.42789182044993496
-2.054601828980556
-3.421358366529026
-3.6881694142874277
-6.4860985286393635
-0.27832669748793853
-1.56312593663938
-3.6348092045904488
-2.163830819928315
-2.9754229921436757
-1.4725550148803594
-1.4194901164223976
-1.8406937507538168
-2.7522119962012366
-3.648415665170789
-1.8450736935298013
-3.2942954610675583
2.5472206138268176
0.509225825347899
-1.2301760448399055
-1.0279072118209602
2.454602536455451
-4.964765502727542
-2.9908333875115787
-5.059668654342058
-3.1047146586173295
-1.6205041041421495
-2.728545938199099
-4.570160292087142
-4.13585492304253
-2.6705935146250397
-3.318464009413988
-3.9355965206742307
-3.684484225353761
-1.1617667840339576
-4.688539293014519
-3.9784615635727314
-0.6218191658066353
-3.6370306411778697
-4.09626539797482
-3.8162679415221774
-3.9470225973770496
-2.1583372632809126
0.6536188455097318
-5.662009953814024
-5.506916928309657
-0.940788678051627
-4.503301666796291
-7.074027915862836
3.6961667491892616
-2.658180207505623
1.0100926135300659
-1.9251955792747562
-3.1153351494641965
-6.027961409529692
-6.257105422057277
-1.8160208313123478
1.2480280351160757
-2.395073841670953
-0.8432573961874643
-2.1663009073046267
-3.4134814100455855
-3.5252238662328654
-3.974667644544168
-3.665681487872287
-0.32877381252515636
-2.5242344501237026
-3.59473628538676
-2.865922875272518
-2.8451617568107275
-2.2851298408301055
-1.004408312871886
-5.936506399036629
-4.510611022756699
-2.205658577343452
0.27952262764855296
-0.760955256909894
-2.1878904893633364
-2.1650415629310187
-3.2815182612620046
-5.7351427937331545
0.10100554088467327
-2.898295374386482
-4.371840708956498
-0.16795333825991057
2.1505410068970363
-2.1043891834436392
-7.356235350392704
-3.58254180888501
-4.373188019318813
-1.9048695450947768
-4.107981333576511
-1.8435218239836189
-3.8282685731659782
-0.7931365128557691
-0.4807228570354298
-0.22755155801462787
-1.5292834580562602
-4.60749987975787
-2.2305569985724025
-2.321364260971293
-3.1552595346419454
-2.4543318913331644
-2.896265591109275
-3.0883417982077224
3.753854988204902
-3.005271278680378
-5.799433440076651
0.3094882922066886
-1.5513516783210188
-4.91875170407827
2.113990297199876
0.37471856489687316
-2.6706260867257607
-5.337672914424343
0.31473707035803344
-6.078639638051968
-3.4607856521434135
0.9040087518239869
-4.542952334026181
0.08393989452938178
-2.998594970759123
-4.104102667523133
-2.6887518082400175
0.5567284682092182
2.1929986320796595
-2.050057803839337
-0.7674865715876178
1.4428990772707144
-0.6589121905004895
-0.17745775904266325
-1.3189495301273866
-3.8360530536553243
0.21143026146175478
-3.8237056781195506
-1.807236061179545
-3.026980909973568
-1.1660883032050053
-1.9763046942319578
-1.801765804164681
-0.42707742261500237
-2.9911466344302906
-3.153036591284892
-3.547142393826024
-1.4733423795256964
1.4799425835012614
-4.7224639578206045
-2.7056393363752194
-2.1713966559622873
-3.164051880127589
0.5695656313844676
-2.250257283024822
-4.116049946519668
-2.829093828324352
-0.5272395747080539
0.34295682860635074
2.1307150731616664
-3.8459119455892643
-4.05310300714426
-0.6220204540026846
-4.679925066777316
-3.936644561368819
0.24066065604279505
2.2176028528094354
0.12410048258169389
-2.7297954523320116
-0.548465898795619
-3.5902362451461576
-1.7567709742204842
-0.7759271169470479
-2.724568882014493
1.0233085212079784
-3.223043499481839
-5.290440815582857
-5.863286597305333
-0.0683085050866602
-1.8418924187869152
-2.68927956070337
-1.6938557688158458
-0.4581559086208849
-4.062192445623585
-3.0784428831818653
-2.027736543529131
-4.565437973921122
-2.2810766141207073
-4.725561251330546
2.6547966153629474
3.4304561512442904
-0.006987295656378173
0.5651202999404001
-4.689465006727015
-6.690224712312332
2.373194542412215
-2.1619939502232195
-0.9184188282705301
-3.6243756931794575
-3.441676789223193
-3.4920382244784096
-6.5338913156660805
-1.5002580776526186
-1.854986462585979
-6.244928213006814
-5.6477098476823
-2.990867077515893
-2.2342000844736387
-1.9212657551216794
-1.552563302601768
-2.33360969188619
-0.10220564482769305
-6.5854258735451685
-0.4661328576335794
0.2702009464338151
-0.775701722589676
-1.814911535476188
-0.94055790384632
-2.5671828742877167
4.846713807882894
-0.718174828172827
1.040117586336126
1.9489755173444971
-3.4580575268501317
-3.3320588966599707
4.028427011691079
-3.275550629194103
-2.1048025421725476
-3.574464696667255
-0.1965675284849924
-2.7617526146814986
1.30235407200207
-0.5390718772718955
2.8682603603186454
3.770511343609165
-0.3297193551880953
-2.360086344158672
2.8772327943728304
-6.9604200835837995
-3.241357710856692
-6.42298442632949
-1.2751284656604713
-2.4929590303641915
-3.61106551739856
-2.630866701830453
1.0789612828416923
0.6239458402837335
-1.8534546050892169
-2.088029621013414
1.742947447684444
-2.1060111512418422
-5.085921129549545
-4.076392021891943
-3.912704873197231
-6.041311648503052
-5.259405265946781
-2.7776850390450387
-3.1326586583129186
-4.688482302329364
-0.7202511309936618
-1.111107671098533
-2.6353391966984785
-2.7677445396152445
-3.5421077219625987
-1.258567620965308
-4.521301006177417
1.1435869760357855
-1.4919387390645298
-1.553139265544117
-2.1713992312374595
-2.9804581329572977
-2.8619992956579257
-2.59553267458803
-0.0416805454598551
-2.4228810547309574
-2.313260952797743
1.5922491114267119
0.8523282448252489
-0.7581352564345846
-4.58394860341757
-4.008711931173815
-2.065675531920716
-6.2570327778042545
-0.928156757445856
-3.9494540898077344
-2.079916144904468
-1.2063333738773332
-0.3410004013065027
-3.9094479546415943
-0.6546200254591797
2.6990851181214848
3.00657260272301
-2.007798854096737
-1.8891438515713626
-0.015526892334787656
-2.853756541417081
-3.7204506016029746
-7.876020640056654
-0.6415531893824991
-4.181421978622736
-2.7506999271790744
-8.214924584853556
0.37171160372433126
-3.666778253192764
-7.289548145651713
-3.8513315849224194
-5.53725551088804
-5.126843351270941
0.17784894382223412
-3.9606420208831623
-4.072310147234128
-6.078507545027496
-0.9300175286450066
-2.52752000636155
-2.141110775303038
0.02913302084078164
-1.744862294466487
1.9301604285944023
0.6845298648220478
0.20820255910068663
2.015271130590854
0.41219514210515523
0.03505685024014546
0.9542213056789027
0.3023792060160621
-3.888446345071275
-3.756005831477729
-0.25999861314636696
-3.506631919348631
-1.5918733672450491
-1.2649237329947791
-1.966891558275058
-1.1988348773428585
-4.071824389428819
-0.506301001002319
-3.1770551131129343
-2.301716540204986
-0.37337630121869575
-2.5575499151811845
-2.758885086818602
-0.062407204755974416
-5.900108999510593
-2.8583398140302667
-2.927414487159661
-1.3257653459166139
-0.945306302405089
-0.24071795227860515
-4.300009237655298
-4.719355919212877
-3.833267228261777
-4.686523676121034
-4.322728948639644
-1.5162532033265421
1.1870319548416424
-1.319594653400034
-2.3000300293468103
-0.7551867656108107
-3.5140221813784676
-0.8227966793321198
-1.6052596948881208
2.5559891479710255
-6.255045204211587
-5.221416030096075
-3.8714873091888404
-2.479494719395914
-1.04067120216303
-3.541883279584749
-2.5266659883583924
-1.9578715996899838
-4.02743672409455
-8.091076294307667
0.08015620415655869
0.45985344968059627
-5.360445173835128
-6.894846358686149
-1.110600248249971
-1.4821019086174774
-3.701222144176746
-2.3414985439659355
3.285159649673757
-0.5199025125179692
-1.7738738830994245
-0.6053174074276085
-1.1481933530471053
-3.970381981693283
-2.5285989885533127
2.93464241580472
-3.2790916889257318
-2.6013218182624573
-2.5058032570050175
-0.9868967594484835
-2.3437498618608292
-4.346241724070542
-0.023981231499756298
-2.464845795115381
-2.443025287396429
-2.191489274554062
-3.2873301482959363
-3.521821860186809
-2.3801917240535295
0.727723278871194
-2.0380274740174316
-2.9906931395993808
-0.18079936386997303
-0.8427157946349743
-5.331505600413923
-7.119202265307035
1.3012152143725155
-3.2112433045606767
-3.137493128181873
-4.122562339681246
-4.112191491949511
-3.473755079709768
-7.364145028165795
-2.2647509251283586
-8.522900994861148
-2.405395000297718
-5.1990090952672094
-3.3152686261173003
-5.1891150703613365
-5.477414966747486
-4.660043087089582
-4.856023715202622
-1.3630724440893263
-0.48010354819292317
-0.21206812517899404
-0.08970516738590319
1.254969491923251
-3.4815855265566205
1.5731467617371575
0.9446007063411754
2.2308555646599513
-5.602165840404592
-1.0583634539510092
0.6391448850694849
-0.9084401595409847
-0.4453303370343486
-2.7638130387501136
-1.3815819128437588
-1.0921650392963653
0.910913394809062
-1.8963843861172722
-1.990787645954673
1.3073869062567967
1.6125814189000023
-2.6611504655254956
0.8079552117133354
-4.301421637739941
-0.04625468783036287
-1.6750739935203238
-2.018531327025108
-0.16603249989097113
-2.4625782036016868
1.7723314063289357
-0.09413328136529227
-1.8561016942218387
1.1751207506406005
-1.443107918579678
1.6609204702574094
-3.2545572286317173
-2.595426607290684
-5.724358356008011
-6.31192951394419
-5.281401778962437
-1.2225435841318413
-3.792365198163566
-4.802832019962968
-1.5398112191264977
-2.3283088655411732
-1.3288643079660103
-1.2019708960870532
-1.9631034740619673
-3.4187098485552334
-1.1474918365639173
-2.449627687866022
-3.0514894088855704
-1.2537710721768842
1.3406867875397501
0.7086851842046076
2.973639892285505
-4.145903888696904
-4.162098771937718
-1.3488351821478795
-3.024105212791027
-3.7980278701285326
-0.8053555457411401
-5.096102961842182
-2.5274938285888977
-4.254277346028042
3.1675132874611633
0.6344351931033064
-1.3006368950558116
-1.0921296129953266
1.5503406275952913
-2.582444258476357
-2.597476072442267
-4.25603097784466
-2.076199133764782
-6.62625425228791
-5.430340105900992
0.19221629156411674
-4.073284814861488
-3.7463277340872443
-3.195050889925896
-2.1714501218189097
-5.853106742047151
-4.4768299619574226
1.0118890568295764
-0.1468801248209263
-3.506759615184194
0.3692760775135426
-3.977650087893973
-2.144426495183466
-0.8947901480682167
-2.38899593555873
-2.3992190697694475
-0.07154989549649086
-2.738054433052642
-1.035828623210825
0.44091314146891114
-1.2756712708560567
2.247607324915317
-4.411917943637633
-0.9371434560884386
-5.308679568150539
-1.3554794235166283
-0.81036128547783
0.1144902105801215
-4.579506559172641
-1.8500322230917015
-3.9010222997433304
-2.8480963200623854
-3.781772182754906
0.2605495119344302
0.6243477156341853
-2.8308705240908463
-3.0939164118100573
1.628807367633497
-2.3113649182882288
-3.310688296612487
2.4923769122904016
-5.0180594946726975
-2.3347718974298592
-6.637803050533068
-2.954527024866498
-3.6526685408147803
-4.273990105532213
1.0135684892116417
-0.9227422655520551
-0.6384994806399158
-0.7957857289278806
-1.8521253492351677
-6.621808510122992
-1.8293933081650606
-5.200663473041066
-2.0000111725621426
-1.2904378597954578
-2.6640968737516597
-2.4418317501251297
1.2078095081757274
-4.4410159484708585
-2.653958678792745
-3.0040429595027143
-1.2297168575242532
-1.118908671481947
-3.1019608573811697
-5.397279542995612
-0.7018748646836724
-2.96331315812566
-1.8766408072205765
-2.983475600816977
-2.830738386567389
-3.0481175634930198
-2.5640805674998415
-5.351447379517253
-1.970471029099324
-2.111445408000245
-1.7311132711820476
-4.091055820268942
-3.2245165099237587
-0.28828828779657883
-4.1602008611137595
0.055683696734496815
0.9473490481379778
-2.903541613768222
-4.631919020889758
-1.2687063942726227
1.5416143094731203
-2.3220749833332075
-5.4301743680490295
-1.9095539182166572
-2.262758421238996
-5.877524025584438
-1.095604128149007
-1.641214023841172
0.971925251152513
4.138431541870007
-1.1315532240406905
-4.502612943599009
-4.700206323228963
-0.962786681944964
2.182607175912886
0.5552958931299214
-1.936958127843821
-4.669219594981148
-1.957792312564617
-3.4645989509347714
-2.6781672587271275
-5.490253622435208
-4.477602189861185
-2.3735399502656556
-0.6093762817661867
-0.18666238562628304
-0.083739519910427
-5.5115025673854605
-6.748461413348319
-1.6225386968364321
1.5444792068298414
-1.5354106378252212
-2.3245187364443884
-2.69050929995256
0.3550326427965411
2.4187413616245617
-2.6451376201609507
-7.121966657820436
1.849582071785343
-2.15400198721155
-4.866422109172738
-3.0289012021913404
-1.9635851365646078
0.8600240202541303
-5.741835451476261
-2.614593821046782
0.3513199294200293
-5.962411455073688
-3.0633214443554624
-4.254787363322684
-1.236006542857775
-1.5179021338196002
-1.5324375341488226
0.7095148287215366
-4.128395566697577
-3.921197693764465
-2.442349269814688
-3.40501041253003
-3.438356655272867
-0.9710586566038225
-4.4175481191498385
-0.1699905491109039
-2.0445428672071353
0.8262911848325925
-4.429226410670191
-3.2541817561155324
-1.0736079085301786
-2.6784079815261914
-1.6588258353372591
-1.3403754349509538
-5.461467519231449
-5.455240861680994
0.19724471691281714
-2.395112676700304
-7.503000319401323
-7.606196221306359
-8.2032405251554
-8.17710253987577
-2.8779245157984685
-0.05859612230499901
-0.5197220358261047
0.7489906090862524
-4.014548596256194
-5.16377890826311
-1.9872105879890762
-2.500969487293331
-3.759413160987511
-1.2257939869217493
-2.2359416141749757
-1.0560350743564355
2.375790693837999
-0.6180326515423825
-3.9671999861018
-3.7575494163220386
-6.572747762357657
-0.13788712915269843
2.954486099306932
-0.3960300675397691
2.673145584099313
6.06520437998721
-3.7510875848326077
-3.9035261933717087
-4.899581288739794
-4.2418868362359765
-5.838024910168175
-4.166928666784658
-3.6527464725306116
-4.3052186471455745
-3.6170475787308263
-7.144549177599937
-3.0587717762958353
-1.7733127373940019
-4.206257643930527
-1.5840272498293966
-2.9026753119277497
1.085680829051069
-3.6205929700403776
-8.757700680323646
-3.8738325383006704
1.0467565106663994
0.022902971596997137
-0.6900385543124251
-0.3368749866433498
-1.799078328494743
-2.58815621129328
-0.8967647669451804
-1.6034257135692545
0.140762531172144
-0.5918468863166708
0.7350705395054138
-0.19113561678230206
-1.665191244593637
2.0919360155627893
-0.1144637328748151
-0.9171324030645855
2.141508889570768
-1.532206964295977
-2.8909161347798285
-1.007950913397738
1.1202168151367669
1.7186489997401142
-1.4770871189034853
-2.5366280985013434
-1.5096200705544862
-2.7529924904204743
-1.151458300122964
-4.229263494778548
-5.573949614990088
-2.232239265257228
-1.6158798578216556
-4.046067618767291
-2.915931089365882
-2.1102196361034173
-5.010870473795348
-7.338944720820768
5.498478618203684
-5.763424038766292
-1.2131519249246672
-3.9120843341245775
-1.66139718097991
-3.167681105703397
-1.0834000412447682
-0.4081728376239534
-4.32246753586633
0.06972435433537139
-2.4631784995400503
-2.0111946492325563
-3.544412445537986
-3.2247465528466135
-4.724325503967725
-2.996647153792077
-4.371840708956498
-5.276868546146347
-1.8372842375153207
-0.5233225010327045
-3.6012752802553565
-0.058328783731177815
0.6311781445699851
-2.7683879606847976
-2.3100884597334397
-5.904174499575102
-4.087038231452368
-5.7351531316554345
-3.242794729433464
-3.290979532622788
-6.347774217109242
-0.3500551278557162
-5.478959193220573
-5.212093324510079
-3.0679355441548832
-0.881609316967405
-1.6854737524735544
-1.4773805727455254
-0.7055204266688718
-0.9301109339891696
-0.2735106399610004
0.7872983402833913
-5.554228951207848
1.6815779822988746
-1.8150564319078646
-3.2333101857810744
1.8045487460834149
-3.123410631232875
0.6389292708593083
-4.025479833341185
-4.432266243896147
-6.971769709715688
-2.5763900055261106
-1.595647397927313
-2.1470420901394216
-1.0826530011549427
-3.0652446026483617
0.6117266143855074
-2.270986447043437
0.2982980726940682
-2.3059104684632654
-1.682625305251083
-5.387539653823676
-0.9548830382316779
-1.0079322355171798
0.981439456640694
-3.497279928646129
-0.5391973065916997
-0.46421603897022257
-2.4358473712712083
-2.37234579021011
-1.3168325058591732
-0.355942711440649
-2.2343242936379553
-3.977349580527261
-5.620459980146363
1.3188564544851034
-0.781666003410357
-1.2440902005906906
-3.8241189969745966
-0.5464670962379607
-2.286737793077396
-0.5272860672087658
-2.8134890777454236
-4.455607088857033
-4.551197825713788
-1.5553735068198034
-1.8299093376498083
-4.20964859275245
-3.540149150268878
-2.7931740248653156
-1.9068797631055652
-1.2406852238350707
-3.4487954439957544
-3.878314699268544
-1.0433402972316137
-1.803766420831135
-0.49984822918443217
-1.1734983460583288
-1.9898688306715444
0.4866589900896731
-3.8511615673356143
-2.848008299407383
-3.0589146210644738
-1.3577498471584615
-2.2359155940097053
-1.0510923902345926
-3.249326684772759
-3.9696813480999147
-5.166274115836392
-3.726712772660809
-2.5596704428105954
2.4953774685535746
-1.452359205405252
0.6652477546111947
-3.908060941165047
-2.941768598345141
-5.9248997973806805
-4.14666113297097
-2.722582272790582
-6.029802999058075
-3.200527459521361
1.4494456773170588
2.6169286533676335
0.8932191948515081
-2.90303122928145
0.13995388253994576
-0.9922869383371402
-0.4940925465788786
-1.5898181291015576
-0.8644952286649976
-1.0210372809594992
-1.7937520460232677
-0.9783712300149712
-3.3371525680055747
-0.9732303399583864
-0.6405783846010616
1.1108805512728905
-4.303128746620481
-5.364858372715507
-4.882385838650635
-1.3201806539192757
-1.8813642883039534
-5.0185652465946715
-2.1870796027781068
3.24945727409114
-2.050635410597666
-2.7071865274198332
-1.0869457115571655
-1.3437835371118938
0.39792795210338255
-2.505839011294593
-2.2699000667879967
-1.1749064336070296
-2.91068344264433
1.0439765925354019
0.7119447803390602
-4.229709110724895
-4.660603818442788
-2.644156503149094
-2.7575935844107535
-3.8897586025529027
-1.2557920571097674
-3.6552988312257404
-0.027255083051237795
-3.717088119216832
-4.13352085375509
-0.7530070084262687
-4.230427427543107
-2.558399811951303
-1.8750693855889304
-2.4332512402475945
-2.6291501139332376
-0.9463197581227027
-3.29120982933052
-3.247211778914501
2.7935979612257875
-2.78569277311708
-3.1592772988173916
0.12574911544936823
5.704646583389114
-1.384058145534866
-1.2647812670892296
-1.6864147398680847
-1.578777523464655
0.3706189480400343
0.37388137468296756
-1.0711239083408552
-3.2879473748317873
-4.833551594546132
-1.6393744977689177
-0.41255844103489153
-2.101281464494305
-2.829401547149867
-3.6304742971549047
-2.9668604983125024
-0.5861278846109018
0.022808532267670163
-3.1837106048699786
-3.8870025734879037
-2.7735953071340385
-1.6912312462025634
-1.7423060826238854
-6.169932562545628
-2.186700633315332
-1.718500562738747
-2.9298810045382955
-7.785178530327589
-5.615859618287504
-2.3956398677465436
-3.7208259647355497
-1.0224502929180854
-1.353327187246169
-4.427954321413089
-0.9260538031418579
0.7523303900392422
-1.6765829640716432
-3.2667994343576443
-2.398768323539991
-1.4164567415710223
-1.8130412008164551
-1.8711885745731711
-0.743914143703666
-2.5950181891060913
-1.7388939228658529
-4.776444221570053
-1.7967241064035406
-6.233834727051256
-3.4016341366403413
-0.3104704913642159
-2.7742339574538177
-7.103680085437876
-1.6207430230915847
-2.5724964691311003
-0.09848361553691534
-1.6051136482486286
-2.1090717398780545
-3.625216855486819
-3.730090956250779
-3.705247785394629
0.18122202360250605
-0.6948877116888101
0.33098567233437615
-2.198032335603021
-3.4250635005817696
-2.5549585046754455
1.875529010434694
-2.313495945215411
-1.6959225213807025
-2.8999941130922746
-1.5605182223477183
-1.8645462450849108
-3.0956242462479464
-2.1502375334224446
-4.9650509207053934
-3.2045209783783344
-4.074103503678155
-0.8925183121265731
-6.374789756235403
-6.95401153857544
-6.994718501500229
-6.503893704082289
-1.0506253957427758
-3.669272210084234
-0.8607930238952441
-4.073647560290762
-8.041423182397175
-8.676880224446812
-2.281195347141201
-2.83662304350435
-3.4678289251584298
0.10304076061951807
-2.536746877877886
-2.300971420126051
0.028746380414334534
0.17020184276596223
-2.9746329991309204
-2.6561068855780356
-4.131349920893362
1.009258033167209
0.37521669900303245
-0.7535672566162764
-2.234392666552731
-1.3775595199542936
-2.425534785726384
-2.9242729558582274
-5.9970496267864135
-0.2692581446535644
-1.5536579941709177
0.6474029439275449
-2.3837256890281213
-0.7556765749971143
-4.697515306342444
0.23446264661478775
-2.5568850912239793
-0.26244315871412854
-0.9593016365949966
-0.06439263041523707
-3.9344587168859477
-1.1757412289953437
-0.9832612752953103
-1.0283377684513264
-4.215360562902467
1.2367708601515042
0.22675857327131846
-5.271272869567885
-2.445000282308079
-2.1561092903395744
-4.660819462524067
-1.834628031477874
-6.655140419479374
-3.844536447108314
-1.035033815857943
-2.862486365955297
-4.196511715470906
-3.0821346863839296
-0.09343170425101376
-0.3977767294662146
1.0608830983759199
-2.531269115233521
1.5460169128050845
-1.2943284193445608
-8.236242576931907
-1.255374161459499
-1.2260879330465766
-0.972849932506098
-1.6201824186004232
-4.571870293195274
-3.510515962712476
-3.5133145118815072
0.08805581827096257
-1.2969770665698752
-7.423410093955624
-0.7922735196166323
-2.1350040201100944
-3.865545931235385
-1.2880271171449527
-2.749598673312452
0.19807573976439066
4.23249096804579
-2.498463946778076
-4.332906582339786
-3.39711540313847
-1.6594227687728151
3.8858258099252585
-0.6135165720792641
-9.286625997877179
-2.2274651236912595
-2.5351856895648894
-4.006834861001766
-7.522978699379691
-3.205173503339304
-0.8734590455474512
-2.0788938303250117
-0.9933243720145578
-1.0035561894058291
0.4844831218145586
-0.9336355273990898
1.2550705065807892
-0.6094904734826402
0.644479626170604
-0.1370141525439174
-4.3978419428131605
-2.87813466714167
1.5892671160896912
-4.27131882560916
-2.2633320793986518
-2.4065117777146123
2.5130256612788533
-5.715614759317192
-8.298486032623837
-6.139928241711473
-2.2804815173774258
-7.248320693646434
-0.5435124400765561
-2.8314848194988205
-4.479035326720654
-3.617245236789652
-1.3907194251858168
-4.252881023983027
-5.294113179512428
-4.380245982011454
-3.765641050403324
-3.052984184268334
-0.664867640479732
-1.9148654475082914
-3.1590525183027576
-6.857604089142768
-0.36655483503040387
-1.4494643456122271
-8.90287245150732
-0.1464862958168432
-2.4922294160186946
-2.9948812030191787
-3.0866537967031933
-3.6020856611093772
0.3852743342186382
-4.113005524899508
-2.645627013708922
-4.666148873960456
-7.778916261301245
0.20684002433116008
-3.3013223078977596
-0.7123884948326583
-1.9678888414540905
-1.643589012917985
-1.8463489760362035
-1.6880736176711062
-0.304422955551537
-0.8281631644382029
-6.430167329534189
-1.6576476522870556
2.8221191517433177
-2.1509742370867673
0.3068939672336542
-2.3271312456777773
-2.347217610279775
-4.746239595660937
-1.3162274538010879
-0.6064198119504662
1.2434076686392157
0.3565646867833941
-3.6628647273420425
-5.037516335083821
-6.262199785361533
-8.651921063889322
-5.114340916355902
-3.430463495372739
-1.6052009546652863
-5.458722291656261
-4.395661045057529
0.632645174259239
1.0589346084147662
-4.283361933758824
0.11230255978768022
-0.39543229899006344
-1.6415590455752325
-3.99320750478724
-2.5611489585726677
-1.8892637597705528
-1.8128211055907797
-4.364585013950458
1.725896049000626
-2.4366690969915394
-8.104299374431884
-2.9854342617064114
-0.6305831236012849
-2.5434161330260814
-1.3786168393425835
-2.562416647709903
-0.7577368240927701
5.07003448726708
-3.607590923159084
-1.4956765380231332
-1.2363165796320168
-0.49955606642328887
-1.210781721922077
1.53971732935757
-2.1698828275517537
-3.5346288042035
-4.238246438411436
-0.48707016333580255
-3.3117878199709794
-2.225975967435651
-5.043694644918119
-1.3838357385957458
-0.8688461316498332
0.3282150742635891
-0.8038136664470047
-6.730777106724996
-3.9898424119162494
-2.6155557625982486
-0.7473799562829024
-3.016625364913888
-3.35473955245384
-4.947397710954911
-4.560802237626776
-5.068546488228463
-1.9835155964041835
-3.5378596912038236
-1.1796679074950955
-4.233826943827933
-3.2697106909509586
-3.9784836152840053
0.3725158680443773
-2.1910074990629704
-1.7082486694539691
-3.3197647763617724
-2.5601135189866997
-3.826067214246016
-2.651925949964077
-5.091752661097186
-3.1668300334719217
-1.9405098420432056
-3.18651921658465
-4.570629228101994
-0.5931129186405375
1.3511763092968658
-3.2961723518627752
-3.981059191474763
-4.830978252501664
-1.4554162802966306
-2.152600922001278
-3.5148188437378325
-0.8312672460545802
-3.792713249200087
-2.019170961300548
-3.6080842840049656
-3.8034814616737735
-2.433450812771836
-2.205410544807808
-4.169105814633711
-2.9031583634899167
-3.304201778927658
-1.0069139276616814
-3.1769808133914395
-2.189507528466406
-4.649007860845354
-0.15692787008522757
-3.6090984330992937
-2.7646772456584348
-4.077814857775733
-5.49640777826224
0.8570742344874979
-3.779691385523047
-3.779691385523047
-2.6881414821873233
-6.133846464626694
-1.2423193115081053
-3.946053436809472
0.8359012981005093
-3.008487175179992
-2.8491023601703884
-2.005811838644977
-0.07750405582128599
-1.609046766961803
-0.08464030452054869
-4.484627473445109
-1.7740853513877535
-4.45410069413416
-0.8302002243345415
-2.1983397590925087
-3.468349820076876
-3.7294477276852858
-5.282853416638238
-4.37250233782432
-4.456148021690128
-4.558102144831371
-0.7132654124271283
-5.910153406253845
-0.2703260646315969
-1.0875241020592854
-2.040627780810603
-1.1569554923359417
-0.8154061316691916
-0.822530228802467
-2.348489204891895
-1.0671422797153447
-3.3543811204075658
-5.32713122678163
-4.181162544933372
-2.0627056098765357
-3.5288832381920905
-0.7759055763854231
-2.4945741997681887
-0.7680576846403062
-0.1272831925293599
-3.4955747977200984
1.1518720238584466
-2.530906078401944
-0.27999056845048864
-0.6332762050163765
0.01486518599900482
-0.09042566891336051
-1.4655094967566018
-2.9521018558934498
-2.7922503148999107
-3.5661796333056204
-3.6655799525602033
-2.520827961898633
-4.130145903033191
-1.6860543814624276
-2.0757548589857464
-5.846152735213289
-2.180583012453008
-2.719648812453915
-1.462408078477715
-5.40395427237295
-1.405340589769539
3.0162893440709655
-1.8764193667056979
-0.9158119945284464
-3.596381674089352
-6.289750682089085
-6.143962499894874
-2.367687257161244
-4.199973784958515
-2.768340344106237
-3.3941692023224395
-1.4195869537957677
-0.8034000938705923
-6.449823916529131
-3.9022374093636425
-2.77934810161742
-2.4991519787661525
-2.4641520622437096
-1.356878746352478
-0.7639788046465105
-1.3427170978848217
-2.7148431204242964
-5.329722680671583
-5.539966036002661
-7.0322869744603995
-5.116177693556973
0.27846596517327843
-1.3427174687167822
-3.9263363898972052
-1.6757548727594551
-3.209718932506742
-3.649258034038468
-4.216460682373265
-1.9100700657566199
-3.3383363245671993
-2.499397305870065
-1.2132537800704326
-0.8390108507845652
-2.6820299862551527
-7.336304772648949
0.6014809305094404
-0.39932842061489865
-1.7395715432356993
0.6413590223629175
-2.8967777300744304
-3.5829395177228682
-3.3230376504863304
-1.2458564145386601
-2.997039337268873
-2.3588905432410803
-2.7065500044602437
-2.0057332137078183
-3.9486831548635397
-3.475589885044211
-4.930704134780835
-5.217190554764639
-2.9326352730459577
-1.0132922623729606
-3.933053501451942
-5.728059771171017
-4.793328973608028
-2.2043040375737735
-4.282034844152088
-2.0380059598225695
-4.1374660618
-3.8637159850253218
-4.038787023028038
-4.877818621121081
-5.245519334066056
-0.9361380241600261
-2.9917985207263436
-3.364438160933668
-2.4411452750639535
-0.25763747453484165
-2.266972803884044
-2.0180208211465738
0.6515636065828859
-2.8082979480066497
-5.206410304013215
2.877806288249901
-7.522332174637099
-3.828314154427127
-0.20516122854025162
-1.3180758910239456
-0.8647725512834643
-2.2383452800695345
-0.7550454421835384
-2.8633781589440175
-1.2189271861889297
-0.6318370956436388
-0.5753427193047378
1.7713382486594123
-0.6445896307927812
-1.6587743494415743
-0.8094411227859705
-0.6814544818432524
-3.2840783255433945
-3.0331146854348017
-6.016829858954564
-5.743033962880604
-4.384921933132203
-4.403719115733326
-1.978029998560061
-4.57801940899375
-3.480419660589553
-2.268522347501652
-2.641258732995944
-4.312682890634397
-0.06764084778725138
1.7331211571896832
-5.490690270193226
-2.3624431051030967
-1.8608469000842185
-6.150324646850472
-2.5478041123919626
-4.760236060416041
-4.592181126629411
0.17600773094306996
-1.517368045117226
-0.1767773822656818
-1.8615354447884358
0.29685523167653904
-2.5616903630467838
-4.032394677752353
-2.2709703717462624
-1.4762106231227847
-7.433818020711509
0.027914241831377178
0.8464598166936105
-4.403332872339474
1.6659911464797297
-2.490989546610471
-3.221647916813319
-3.036314911300945
-3.513485700826949
0.28483250651782627
-1.8593519233498683
-3.0643885554199155
-1.7707952626977057
-2.645363134299754
-5.253003659582417
-0.8797548700047898
-4.242053922367132
-1.453336874282023
-3.8337549105641116
-1.2372570103123117
-2.786163372801527
-5.360462309203593
-4.700880068360424
-3.309736468289391
-3.8037540954922746
-3.390334545204234
-2.044643352091953
-5.347338217266493
-1.7125368795500227
-5.876601445683511
-3.259204692333107
-2.730731148707359
-4.406024414714658
-1.9844064910487016
-1.271886881165107
-2.023069544700166
1.5699932686898999
0.0947219359506537
-0.5092727838969626
-4.0101715005771
-1.19640149171525
-1.1142960741716073
-0.5461143985451677
0.06267641659405176
0.08411195107364608
5.25468711049668
-5.181399437192735
-2.020200816054205
-4.81307658606065
-1.9862158862228676
0.06909542460384133
-0.8317618661951437
0.8096765158701581
-0.6942932571189697
-1.3282705877282912
-2.880402757686881
-1.2188095426741767
-4.533232292148104
-3.924519139761848
0.16926524445545074
-1.5220910701303194
-1.029655973456013
-2.5616951952647913
-3.5558238464101755
-3.8748338232846917
-3.3742631015842686
-6.3646928383841335
-1.9212263541578158
-2.6519213607862326
-1.9896052467041958
0.34146325677526174
-2.720799833259143
-1.8929468763765347
-6.479999361585246
-3.8293434107989266
-1.150678923028647
-0.9164578595651212
-1.5840743497193253
-2.524122832558409
-5.208126935455569
2.9194767968519177
-2.127492819952079
0.35015797861719256
-3.2994920761351185
-2.768652047429666
-4.178641482355532
-2.9434493888764246
-3.0729830563261586
-1.059384012666699
-1.2844989354110543
-7.327869134052991
-1.7847788761820362
-1.1038561340718627
-3.033138590643826
-2.917854717725728
-1.7670502797608285
-2.443783775969834
-0.3224785460821211
0.5125312474659275
0.036074674105151985
-2.824205679622793
-4.838510924063219
-8.515195656288697
-8.860750746069067
-3.23442162685668
1.7348675661724282
-3.7040542505592047
-5.796988584966811
-1.3448644799070903
-1.6358577747859346
-4.191901648320382
-1.7765486448340968
-4.312232654337243
-3.4598303700681283
-3.1067799742555176
-0.22244948213772286
-5.2649015605017535
-3.6196188039098294
-1.2770419118687335
0.14018053568336022
-0.5676924325453803
-1.507106064075091
-3.9132352998838607
-0.2594986248859158
-4.290188556730203
-7.056753165394985
-1.3680458036314338
-2.4686781345945628
2.168443632419451
-3.6811712561007366
0.4945698182445911
1.655579049471454
-0.6197561014194066
-6.004734834578139
-6.787841674957737
1.2281643073502824
3.876992969982013
-2.64784486078964
-0.6677961047597981
-3.595097797065483
-7.674289818706864
-4.909769510038027
-2.650807032883211
-0.39386958079385287
-0.18172915318885688
-1.286946958137083
-1.5532274619373505
-4.257862465823673
-2.849996948694193
-3.288539297238121
-0.31391587055761955
-0.8070376467173288
-2.932357923285502
-3.572760100014109
-0.41865621406951486
-2.803169079411981
-4.927596830853183
-2.1900191298815472
-3.808668199904386
-3.1863271983066426
-7.443736986500565
-3.79905220869348
0.021568697567915254
-2.9287302499498824
0.3068744538584356
-2.281475856750677
-3.3206630158300596
-4.364355938563028
-0.5966211269315015
-6.515388387556628
-7.483375576195583
-4.386814300852558
-3.0455493997559935
-2.700021849153739
-3.3187791972863647
-4.288902113678097
-5.199641958541378
-6.061757361071377
-2.6620130761973217
-6.3368714572588205
-6.852956508937174
-2.282062039605018
-1.018051456251672
-2.174931592815607
-3.8772450025435967
-1.100045698214822
-1.6597596295546404
-2.6846460753175116
-5.8909920517228604
-4.661451730699756
-6.971757319869552
-5.201501646103364
-4.284395991396478
-0.8794012977591842
-1.7727228942289774
-2.857097936217725
-2.6493300230487162
-1.6004119320734833
-0.9459053699610734
-4.219399059772371
-1.499708802092407
-4.2336414792208155
0.3364690066468909
-4.467270646182505
-3.9251534560850714
-4.85243858616883
-3.035439466016058
-5.104589007556473
-0.9364084848141241
-4.85391087095618
-1.5234144472571245
0.28166793269274104
-0.18057195575409177
-0.4158359142146937
-1.8975379479683454
0.6455029546341386
-3.8782709911229523
-2.0067376789876255
-2.230742341278214
-1.6220221532742285
-0.7923124551147153
0.6005993708001949
-3.9402155290958634
0.557773974126378
-2.8874473022087823
-2.0538926678094787
-2.3607060744167816
-2.0941896248212144
-2.1784773732922416
-0.2720943329692826
-1.3038859279717752
-4.016003700549422
-1.0729502679026388
1.3893034102951851
-1.4088452817371455
-2.546399754499013
-1.8757064451095509
-1.8780871874477205
1.2481035848482487
0.9262373866986944
-2.2535974814660755
-0.7285145767427157
0.6823866981547323
-3.4685250780398005
-1.1021789985367711
-4.710918797870351
-0.829030203778115
-4.470212276493068
-0.5061436160554941
-3.5063064533892248
-3.100580162936482
-2.2306253167580445
-0.8528494186050188
1.635254557574812
-2.4197505553745975
-1.1651848809119936
-2.613248733346068
-2.7325215118894928
-3.1297675282711652
-5.550747910675973
-2.092293745707346
0.25712800479364084
-0.5583510273849428
-2.9054105662845227
0.4655080436157936
-5.1176372172427564
-4.82853887759155
-3.5645818273851377
1.0508946258544793
-0.8355278551224117
-2.81025344865729
-1.1933013246716326
-4.496489577118739
-1.8110886542257945
-0.36619740016129665
-1.2104935474451188
-3.1537699386859246
-4.677918792084078
-5.712186939977464
-4.27475954986294
-2.3929299941025293
-4.21956108780214
-0.471184430688706
-2.4129493051585658
-1.2817427173164118
-2.239039316318371
-4.487548424734516
-6.550480652871981
-0.8130766565890278
-2.238092846356456
-4.539402340455902
-3.355326497401435
-1.0716999642490106
-1.8779608338700984
-1.9846213516811777
-2.5471017690139517
-3.8455402716249125
-2.8246986253386357
-3.0053149391266425
-1.9642027635558181
-2.3128187253851893
-2.629537028947842
-0.7402263623767541
-3.6353361204442183
-4.528319763114343
-5.950570159286983
-1.893562127839519
-1.7310078692090927
-6.688152755333455
-3.1211650226097096
-5.7745882050484765
-1.592286785594509
-1.2875021564773341
-0.27891643222701534
-3.3549212896203437
-3.4242918021384083
-5.0483373414946096
-3.245521586035587
-2.937171253697926
-1.6412188465647861
-5.920489015500798
0.36830517943992785
-2.809830241439722
0.3149851049604715
0.03646014661656742
-3.9085019035846895
-2.899758344801269
-4.6570066088432345
-2.497893955588386
-2.2987742342655357
-4.239901103981753
-3.0025302297355405
-4.408071119583318
-5.757912546083791
-5.279760224534465
-3.08528516601246
0.3005848387418179
-4.48139194929155
-3.552718069614729
0.26300969321750917
1.447524160300132
-3.9921614040763393
1.4167304418293178
-2.4378890590308484
-3.2441069195484493
-3.6373611417113563
-0.9635964609769844
-3.8660530569892018
-1.4777096730571437
-1.6351772079408011
-4.297471358217413
-2.4674120293765096
-5.602947133199288
-4.585322609214038
-5.641272592408338
-2.27422964385719
-2.0481560453115852
-2.1492445008745746
-7.213349650276891
0.11669876395754425
-4.217064865138937
-3.0704575766945728
-6.332263098185844
-1.034090638602304
-0.12036064408172166
-3.7469862295290843
-0.42043399044853624
-0.18542734302708974
-0.540961908460577
-6.57813341358611
-5.913313199303016
-2.7823654960202955
-1.2801277806163802
-1.108656383508517
-3.2326192589010687
-5.210013578086079
-1.9814259514975812
-6.621809145701297
0.20771364040094037
-1.5576007103248812
-2.10486278025097
-1.7974998064747576
-1.7179139707020399
-3.7881861649972435
-0.2638647653280419
-6.968193440408439
-9.226991181885198
-9.722616491446002
-4.508277432337483
0.24712508078913709
-1.8129386773220382
-0.07582542120167804
-2.2461454663969813
0.4660977909811257
-3.2706502643993467
-4.734388046587848
-0.9540447574130048
-7.721096325401097
-2.429937422513622
-1.7019017897171043
-4.059279935166653
-1.5329575640798518
-3.236439184662513
-2.872729485716744
-5.438995246899937
-3.634440481536366
0.31610984930068264
-4.276557048120026
-0.38197177095576296
-1.485965054773491
-1.4638436714397813
-3.014951091797921
-2.3931957375827086
-7.934705259072564
-0.37836275027804755
-0.840602865925723
-3.537597856665101
-3.0481411845214885
-4.712959639855774
-4.922780340264162
-0.2858345096451122
-3.155651938414432
-2.6815057138964034
0.443230645077206
-4.362790334864162
-8.676352386466375
-2.5098838690184815
-5.893240459284884
-0.21518883900310226
0.9327803967467136
-1.28030045800049
-1.1811362953481732
-3.0382590326095675
-0.16348404635666697
1.2315997143019821
-2.1065978550390954
-2.51615640421063
1.0246233615052356
1.2103843367536002
-1.0985666819603095
-5.952419357523784
-1.4031797607268395
-4.429128159588285
-3.179809265160885
-4.419917711367176
-3.3197885902187028
-2.565716447754207
-5.3341372325953
-4.0151489123872715
0.09808676355263932
-6.01171311119707
-3.1654737218974183
0.661261778764093
-3.2655140730905603
-3.415741738291171
1.4524585868567559
1.2924131043187055
0.6377286495323008
-2.625751408979882
-6.300247383236745
-5.677876527070682
-4.708249968560171
-4.641277291678981
-4.567725762727175
-2.3023561821584795
-4.669060740370651
-1.8462831108680957
-5.638233162012182
-3.2746496412482715
-2.298924268225615
-2.147598028881574
-1.6234035464990744
0.8921672614853663
-3.024653849596729
-6.551634230810436
-3.463137574184032
-2.553471848873885
-3.4567815031475124
0.1827853774609819
-1.4387753517864321
-3.0251735300127174
0.6252104941892718
0.7473227203445497
2.1001944631754084
1.0678448216890344
0.3745242011415997
-2.0909954424719306
-2.1927282915892508
-1.759188753935447
-2.90691262963541
-2.453375086995093
0.400740115629265
-1.9471150157269406
-5.435896207964836
-6.072061292143759
-2.265673942404013
-0.8312478423676514
-4.4465745497427775
-5.121439395493643
-3.0994338056743653
0.7474575866980568
-2.297282803958319
2.9876485676624247
-1.473545963267184
-1.2564648768012305
-2.2951479018089573
-3.20114929368157
-1.4840533187679408
2.632402754790371
-2.389806254312789
-1.7410180395820847
-2.5805579843521915
-3.5204024708690493
-4.13874313716734
-4.445747801469281
-4.863077796088088
-3.4429275724579873
1.294046904515461
-5.240719897385335
-5.1138610685780375
-0.2449118502224762
-0.9084333075780958
-5.2178654669689415
-4.643547721067265
-4.360041916654911
-2.340195720134385
-1.765092061846159
-1.0069986753607667
-0.7920734229759272
-3.292872928255737
-3.186408453237966
-3.8277680935232787
-1.120626018262498
-1.7288637188031917
-2.480538915114115
-2.200186980582502
1.608947940284118
-1.1539187910030833
-1.9370534888409776
-0.5283256034137793
-4.06879247039436
-3.09621033794916
-3.54751719538462
-0.763275558202631
-4.083035499527967
-4.131665399103666
-1.7724740765186742
-1.3700377624143856
-2.526770208729937
-4.33226757173345
-3.4226443969444653
-2.5509152480858206
0.35654337509988837
-0.4260935413732559
1.7432603596711973
-2.787870424346594
0.23639291522758996
-3.3823306376725943
-2.5185240925633225
-3.061275989138498
-1.4548414300830428
-3.209696118108815
-3.1680646582125562
-5.184407759907602
-1.638545661129113
-0.02114582116186103
0.39312287788836786
-2.8159121364852244
-2.1351225069302946
-3.913243959918556
-0.5043998635022282
-3.157348731478358
-3.3426224983654422
-3.4956393126147547
-3.2566637684878605
-0.6496146044250213
-0.8531293150790613
0.16824261955297512
-0.380456408738105
-1.8296704973936937
-4.280626180121596
-2.381862695675456
-7.318554458591524
-3.3853712605596216
-2.4602159831845456
-2.9025399058810253
-2.2966225430100313
-3.0404850369959875
-3.6964156920217253
-3.723281027900024
-2.1586688055403602
-0.4430399709912286
-1.5934550455799854
-0.13748583926985336
-0.025794193207810828
-1.922179696134992
-4.12118095310017
-4.87198479254261
-2.938515326553691
-1.798354725888457
1.0433125801442205
-6.5812592414140845
-2.7130519800797037
-1.7082218915066572
-4.451917383412824
-0.7648128805827968
-0.201984351217661
-2.636140011299273
-1.6068000841287788
-2.5667572815494433
-3.464815566359943
0.8619560783727039
-0.840166840780673
-3.991894108210463
-2.02227849490902
-2.6549076538673675
1.6659853537919944
-0.17321465600403527
-4.4803345582233325
-2.7105794607599183
-1.3871677734331491
-2.041510171584273
-3.6293566328488938
-1.364210775152171
-2.7352445319730987
-2.0192166522560115
-3.2254925993185632
0.014315763097734068
-4.9776872068497395
-1.8719936978250702
-5.742928772388636
-1.514361161411203
-3.4116687906027106
2.4970063239805884
-2.2087404210046353
-5.607685777246579
-2.258929312547621
-2.001798353104265
-1.2796275849559722
-1.7231420161340882
1.4437081008253771
-1.2973748018424696
-0.019391162450568673
-0.1304355628031691
-3.1005198374523015
-2.136353389366119
-2.122978588326131
-1.1979916550191654
-3.588201989235365
-0.6953978551544219
-6.472644276633693
-1.7089085855636903
-3.3805844796992632
2.0353834644229387
-3.3292943403594912
-1.6962753523169785
-3.4964607962542966
-3.5327472900522183
-7.372326085273494
-1.7517534280137288
-0.24605466147442928
-0.32230434450489137
-2.34266224474029
-3.5953864484440383
-5.396212998087687
-1.44698102183825
-1.5261740777678188
0.5757878323055265
5.354304520169953
-2.85572287133238
-3.599779884357884
-4.519179232480124
-0.826496978218535
-3.2932972185804656
-5.8522763996564935
-6.497756449172879
-0.8878877256421146
-3.2106418491347015
0.7806266736636415
-2.1129571369973434
-1.322171524400533
-3.5696152548016493
-0.6699882033392272
-0.45184681541601496
-0.29094781172798895
1.000455984868293
-5.0411280290806975
-2.2687772373359194
-2.460687358792378
0.7194539480168345
-1.5217280144084924
-1.9678737904428836
-1.3440122998804345
-0.41824411310433957
-2.7752181251954555
-3.3094180892793705
-1.4721744754424448
-2.3623651971773896
-0.7406907099990047
-2.097518516811902
-0.8731225722839109
-2.2949279260171687
-3.7486263473734107
-3.974283531414586
-4.362399498659117
-3.810229172836203
-2.9792338195642816
1.1579859326420332
-1.2908263545587944
-1.2963094271530073
-4.227473959441747
-7.957492378755898
-3.405245135267031
-5.732519336214352
-2.917002570286645
-2.324825645917581
-4.547193228123418
-3.0967416207923284
-3.6706502805691112
-2.9434905000751277
-3.3000534449501755
-3.109577931747362
-5.315896037961036
-7.220725177422022
-2.5560596247156413
-2.055836097661997
-7.076857551455415
-1.4469188769774342
-1.2929541527466701
-3.5067163190555473
-3.3662036312422754
-3.062826454021744
-3.558155995506292
-7.764177379488111
-0.5725075492499928
-2.766833046144361
-4.413031637507057
0.4238480810544859
-3.8088646364447496
-1.0040233805371563
-2.565021481018748
-3.839929502306113
-0.31327884655540567
-1.8088193783924824
-4.803829584693341
-1.337588312288123
-1.2748767272082553
-1.6287522268420156
-1.9737091310129884
-0.032433586844196186
-1.1351381802719402
-2.5713736114382457
-2.4506859941635213
-3.773696508260539
-1.903132444310798
-3.245713930695339
-4.151031871030493
-2.163801684770426
-6.385657864020441
-4.456964308380761
-8.565286512442954
-2.2583192817487268
-0.3422622941962018
-7.197098328713448
1.7235802436102547
-2.241517692333628
3.8864660509225764
-2.357090839925753
-3.0105944860418106
-2.587496629351305
-1.0361082922689167
-1.5341217535442055
-3.228225037179099
-2.0152100622897446
-2.8278587516851834
-1.4034476202487673
-2.7985451635506706
-0.8055485114443699
-1.3857405052289005
-3.3828252333794833
-3.3543054300108928
-2.5608210550249693
-1.820474083131717
-4.127453343555435
-4.14141438925918
-2.67852493228253
-5.078441316673706
-1.4293250058461076
-4.0821988100535345
-1.8239777213188961
-1.0929411334398338
-0.411125022430232
-0.8851767424375071
-1.8529510134886022
-4.0347881810170465
0.9469838486934857
-2.1268176347317014
-3.0561237896072475
-2.7011811436232027
-3.51949571160335
-2.7782798312872248
-3.4366926614679882
-1.2344140814906772
-3.1825848951536755
0.11210066830233044
-1.7426545791025414
-0.44206791782268173
-4.0891658961653
-2.4611662653675257
-4.028361599984764
-1.7658781409328068
-1.3170250942901762
2.5455160534404455
-4.573823065205023
-3.602389480197765
-1.9040997358115703
-0.25327594187647623
-3.5104662171592684
-0.4383597670703226
-3.1148522886813956
-0.681919994473882
-2.3684636505350607
-4.29161053200466
-2.9447381903520533
-1.7057273049145891
0.7593816427646283
-4.467715324564515
-2.115256658402481
-1.021407649799616
-4.706948005379711
-3.8202078194196822
-1.022125887268236
-8.104678249167867
-3.119066390717412
-4.997949868319926
-1.419079687347586
-3.1781032680226953
-5.698013973010638
-0.6196490681303155
-2.1889159256947766
-2.6167344732875537
-3.447683193844534
-1.904490695638549
-1.3012969781611714
1.3854237558078637
0.5509543245110579
-1.494090206549544
-6.390205859018199
-1.3309327330352392
-3.874050022915807
-3.5682593090823818
-0.442121292691598
-0.4499594301181997
1.3905287316536934
-1.764841551228641
-2.2111376828733675
-2.498193004559288
-5.472084339156906
-2.597587780288991
-1.495589811802292
-4.821920069840416
-1.421826343068311
-0.6770750368575496
-3.3546216806600038
-4.617009312608351
-3.207406654243814
-3.244744641890589
-3.323839436982606
0.4279110378295203
-2.816277837391313
0.7424629484863793
-4.932124152326799
-3.818510954025928
-3.940896583719391
-5.943423062087242
-2.288126854785961
-2.234717058546845
0.785335881854971
-0.89269099676704
-3.417580742883852
-4.582112948939036
-6.766705036196255
-3.501877611214173
3.893089003462991
-1.9695921309471955
-4.066927637279213
-2.7878223538432128
-4.861591038856626
-2.8585341522358676
-3.4401890386716207
-2.498940068295387
-2.383803306793041
-1.457545097452409
-1.6362544041910434
-1.476889256256879
-0.11450177164604679
-2.870284765129093
-3.5044069654099377
-0.9237528089542341
-1.5410463470326492
-7.43037710458432
-2.0147418144746547
-1.238839546373279
-3.8085665771751303
-5.9015462018508575
-3.0282391096323806
-2.5308149648520146
-0.3119219041505731
1.0488082498940636
-0.5358539166714772
-0.3467406993424764
-1.1180210410621263
-2.67215090006889
-4.814560389873436
-1.402989342745077
-1.8268549327726722
-1.2190600264915252
-0.1799303055224739
-3.2588358449278676
-1.2541818375374136
-3.077960257148816
-4.466381397893437
2.2425133938928163
-1.45774303591738
-0.623805074118516
-2.167938898291847
-3.8366004772989886
-1.5622223790091232
-0.7232203041129788
-3.2086355424457573
2.227861025511384
-4.278922392661204
2.359305309475344
-8.185708877748116
-5.740943268715897
-2.640448210944879
-4.946221765251727
-1.3441819490231466
-3.585897497230412
-0.171506786999645
-5.983709336492749
-3.029022312289228
-2.0423961396307884
-2.5748599255285876
-1.3512803686517214
-2.944633920240058
-2.992341800210924
-4.0300933897414035
-0.8025161148771642
-1.4411376461066112
0.5769600676201767
-1.1432852222173375
-5.146927687272854
-6.5878823474308
-1.3661283981761592
-4.6724292477268285
-1.2291398000326552
-1.324094417386189
-2.0408189363266658
-3.905952621261542
-6.408866396679497
-4.240400629724317
-2.5369326883999963
-0.967598165974424
0.5882714042103977
2.87861380917028
0.9954292389383776
-1.9760170822137082
-2.3555812809704464
-1.5268139436002823
-1.987756808593397
-1.9324267737061933
-5.16367126551055
-2.8505263053602614
-2.336089058810417
-0.019029380855902535
-2.322563094331793
-2.3526445037008683
-2.11076186275579
-3.5374009861840006
-4.8635850148788435
-2.4186831896253524
-8.252527428130435
-8.30311065713404
0.19078145105005717
0.6504285005883425
-1.9654983288301326
-3.846647824582301
-4.1837688651838825
-0.4954177189700917
0.6627359818418215
-0.1430927118370572
-2.0871951642909012
-2.240019146977481
1.08782994678307
-3.752225194228945
-2.1117699016162925
-4.779234729961461
-4.067341654636692
-5.438268086760081
-1.1266367243777584
-0.6727839691856318
-4.098955864655762
-1.4659775890456044
-1.424752506300087
-1.4575053405609029
-2.7569294354620495
-1.3286362365505735
-1.99753414342057
-2.188409098018247
-4.126999042896892
-2.4896656650960702
-3.320776900974885
-5.057968915476486
-1.2477237916310138
-3.992682770084942
-1.104668226298386
-4.414728328255277
-2.4626497150464344
0.8455629440109216
-6.69706933624236
-6.006901541801187
-7.571114554307868
1.8241374798481922
-2.623217221579354
-4.143382474472888
-3.624947134086886
-5.554885904792875
-2.4346053413746787
-2.7259715206525845
-7.482700259261862
-6.530133466288701
-4.226799753935031
0.6022744308718602
-3.933621835388508
0.7305835942265021
-2.3881617376058593
-1.7977638633391224
-3.1365737637016826
-2.4069101460927174
-2.420566710507509
-3.1236222271263188
-0.8204235884692874
-1.93434181014502
-3.1117515206117754
-2.5381158718289156
-2.44751253152714
-3.8970336981255103
-5.496303970026271
-4.3525639864529175
-2.6641171702350683
-6.3229500679843484
-1.7028720764128997
-0.7744422386827926
-4.9132469578719205
-2.9258423509424296
-3.7023853518989127
-1.4894846891809828
-4.761218676284529
-1.8612014038298446
0.20779259042388637
-3.3542586493492212
-1.9937602037912994
-1.3891166303874602
-5.1419727700713045
-2.3055102584942664
-3.006992958392717
-4.010396576416443
-6.073920354606768
-2.186455050849052
-1.8392475920398343
4.4316628157790285
-4.837361250988523
-3.7338929147131363
-2.2348079591089673
0.23870051460824168
-0.42753869031413244
0.7418276288008049
-4.563300462186915
-4.68408818837191
-1.408837448786688
-1.0237463199861312
2.2262168471531374
-2.793759532448712
-3.9889873502462336
-2.43348073744276
2.1443507085900513
-2.015749742809802
0.6984532806879824
-0.4065579758099172
-4.5207869936293
-7.457070122736006
0.7024423035228125
0.05216963886541263
-2.091960991564695
-2.549693897207751
-3.554009681629857
2.4313757207980213
-4.893546680220173
1.1145012835694195
-2.945226600445755
-1.4195563720760478
0.3632987537285079
-2.7242993624404277
-4.411222119467165
-5.388606571579576
-5.828860526167514
-2.6774706860791175
-0.502080146487542
-1.058216431210954
1.3052792403056588
-2.805054193875285
2.3394842977188652
3.9319901958432495
-2.7016160891229877
3.2888673454253103
0.6568467543054438
-1.807386190796106
-0.9253005659560638
1.677519979145404
-8.080867112739234
-3.2264395235840353
-2.609341043216984
-0.3722605459889422
-5.019852969931553
-3.544777282513026
0.1099587876930837
-5.665714746682975
-2.048969300293817
-1.766427768763078
-1.2421379886731223
-0.7896637331310405
-0.9943704174546669
-0.6919551004182316
-1.0410768508649995
-1.3281427585530927
-5.088834071208196
1.733153713267924
-0.2874957986865057
-2.262145090059533
-3.306138153749444
-1.5143345408511806
-3.7973478917515404
0.31929448252579723
-3.8494056272360195
-0.9108576989050413
-3.0318236305794417
-1.1298508843762334
-1.0771319588752395
-3.0587717762958353
-2.9026753119277497
1.085680829051069
-3.6205929700403776
-8.757700680323646
-0.5456551654707116
-1.665191244593637
2.0919360155627893
1.915940581366727
-1.4770871189034853
-2.5366280985013434
-2.7308408570550506
0.44030294535658304
-1.1776206895456345
-3.4093240463824137
-1.7417932937229175
1.4718274363029977
-2.372587938063255
-3.310999620827518
-0.4462752245148056
0.43104331724999345
-4.357616780132876
-6.334656734507697
-2.440604774032999
-3.629619711654677
-4.66443456254886
-2.048537682877328
0.5409983989980369
-3.1842681583500014
-2.4497259893752754
-4.123359175353629
1.0832186088005715
-0.48605662587150994
-2.1878181952813436
-3.3938660203734914
-0.2004572153394749
0.31656796773001683
-7.589163738523151
-1.2344568498015815
-4.655929280305451
-5.1037880555711395
-1.6805285517409252
-6.2039433202779275
-8.995570557223125
-1.906041859496372
-5.1673949884151105
-1.979508298867083
-2.37695109235778
-1.4994601981615074
-2.9644902558743693
-1.5605182223477183
-1.5327489038381443
-1.086152274879342
-0.8441930305445472
0.5805185433684188
-1.1440380262218055
-1.6469500025648676
-1.6122323456096885
1.3865221292258352
-2.2624388963321738
-2.1468957765517054
0.6447337447319689
-3.22846955110946
-0.1684009011817621
4.098755853856815
-1.2747650869957128
-4.5639933935167525
-3.1463658641509076
1.0089742752673405
-2.929545347622657
0.7461461838332183
-1.4477563282350974
-5.650652925774113
-1.9211193138542921
-4.040639071952418
-3.0722215653574025
-1.4861503219232022
-0.9077042624876832
-2.8527442364981743
-4.422904468556009
-2.4947625799850153
-5.565705339927205
-4.81647142017509
-3.185872805349406
-4.944127029434863
0.23375457975571148
-5.926632604504912
-0.3114693935273212
0.7831780349166167
-1.8367380604941066
-5.897675375388544
-7.9507080086700785
-2.9490476615178083
-1.3874216304386568
-2.589254989688051
-2.51256430815811
-2.9143263795835512
-1.8705312840827142
-2.8973414771901056
-0.4409239972636769
-5.435209341155047
-1.0050681576430813
4.144904492647455
-6.8814049276628895
-6.921439260280296
-5.095210559909899
-7.197317561521687
-2.913860724867745
0.651057641935912
-0.7679855868342159
-3.554123447035465
-0.6093505353739257
-0.7016590515322304
-0.9787829674010622
-7.840497901891829
-8.796703594260059
-1.3067504877882763
-2.725484070077894
-3.3468532553420474
0.20630570673084733
-3.9944675290970437
-0.3949381007965473
-2.608932825910562
-1.8755012306781247
-3.668673853693355
-2.8013337772197366
-6.452523031135124
-1.0990704785343892
-4.074981858438875
-4.352179465941779
-3.1209596309550642
-3.9943309734156207
-4.340698416802075
-5.293015738173785
-6.149898191602482
-4.176997047054456
-4.8371331073329795
-4.402986692899828
-3.641432543543364
-1.4829478322533798
0.13069670440610268
-2.935539403001928
-3.1642788725107973
-2.867490919726572
-0.07463258018065089
-3.1239909880816885
-3.231876952533844
-1.5888564283224444
-2.497128301755307
-0.4283133867772058
0.6364174371320456
-2.2936394505189104
-2.9399023809870672
0.6120167816773353
-1.688193974603136
-0.6236117921734305
-3.2610504169905714
-2.45950754720784
-4.250790072432253
-2.227656693183304
-1.2747030519338485
-0.6652886703653786
-3.3592539143945133
-2.4064000832353742
-3.661395414799509
-0.21135761800366978
-0.5586476343287595
-2.975769879382401
-2.2866288643233936
-3.163429836126419
-0.48992652858928865
-6.545606879133142
-1.2376284931432742
-1.036534252334129
-3.305574478550196
-4.198313174923534
-1.4885113655501336
1.150726293210753
-5.628143229330106
-1.348647478624161
-1.4552514746198664
3.2446826029526297
0.8681861707837697
-0.5878748620240987
-0.20711217750919353
-5.7943969313776496
-3.8429471510186817
-2.4689597957700364
-2.3581457039777867
-1.3636318825006457
-2.378686823619719
-3.726710881265955
-2.4199091388069602
-3.486922633267504
-2.258109767275876
0.11644419546571941
0.5412924250571279
-1.310321442537537
-1.5989497765146579
-1.672432501735009
-4.48606327760849
-6.698401775325026
-5.058943549536078
-3.9842525695647315
-1.1863282990028723
-5.758243561741604
-2.1720938023068346
-1.8833931431529611
-1.9402011926796543
-1.797885931937574
-2.4699149278879213
-3.248004592183804
0.5422971533370853
-0.6728645048256313
2.8632205145886886
-5.756109274706207
-0.5568772742634758
-0.9304483540616806
2.3940692977545015
-0.14250224810097392
0.4181258091146134
0.8524429510835015
-1.251843105162386
-2.0215806952502904
-1.6756675909380907
-1.2516657452536761
1.7049570707167916
-2.060173352822948
-1.7616435201000902
-0.34516772709271226
0.48563511309482155
-2.6420391094322766
-3.8023101324764097
-1.3837366431424312
0.7447051999681815
-2.2633607666681264
-2.744259490396503
-2.3223240326937447
-2.635617274649606
-1.6305271823419973
-1.6572097071747591
0.16746805408617046
-2.573502519901314
-3.786104379828979
-3.238538383415977
-6.05377890847803
-1.8707455600086824
-1.8833907851301803
-2.5043439219326458
-4.212923028695051
0.18077474239165503
-1.3833519007314654
-2.046348203542958
-3.9627616219927058
-1.2636264377556543
-3.329743451669963
-5.953417353324753
-6.5159394622706746
-1.4431675427305124
0.4305782419740362
0.23612947888721966
-4.115655356949201
-1.0069713863073944
-0.40583359170852723
-0.06488758268792748
-1.0527226331113464
-4.316330470181845
-3.9729525680108204
-4.190755345030132
-2.2723255078978353
-2.5876715340402954
0.8925216342012746
-2.3950903988778562
1.4337088174830515
-2.695125150241314
-0.3032899763576758
1.4396885920241174
-1.480637205893694
-1.0993875947862302
-0.4555543715764702
-1.5430957015522635
-3.1579455033625883
-4.0732306276353425
-7.6192384146383
1.6881217573983633
-5.119322934384308
-6.435500303287901
-8.917067331047857
-3.347848218316513
-1.1971488401291428
-1.5367861172188768
0.24667323720458909
-1.1515578696680797
-2.3228690064800785
-2.0705950538387503
-2.928369792404813
2.3313898721167865
-1.4236253646283672
-1.455081993671088
-3.926627370873126
-2.652829950400076
-2.5110242692727183
-2.92983915319355
-6.470617892506754
-2.34375926683317
0.9035445817765912
0.056796625877283104
-2.4172647287060554
-2.803211449348512
-5.198709329717135
-2.4316336147379607
-4.0780114168983825
3.099583340781033
-2.112780278900743
-1.921159077076498
-1.073597751612633
-1.1863794309486484
-2.695102828963733
-8.756575617705776
-3.798410221636458
-5.359260785830816
-3.9964047973458765
-3.7224522999430683
0.45987757510453586
-0.5481809725887848
-2.9980847332610594
-5.619167177059558
1.4438224372680941
-0.07456355810708071
-0.2920533475340743
3.842426356411865
-7.193237385618898
-4.7706061968263205
-9.788074834105643
-2.712167100741785
-1.598033526646058
-2.492736125230691
-4.128342007884721
-6.664363224792531
-2.786149487398917
-1.2325217805831563
-0.5811239468965205
-3.637425419551883
-2.1990980772979087
-1.0128218110205378
-5.121947549985941
-4.189410929188239
-3.1653499286118687
-2.9877644445404594
-5.494716053691786
-2.5085131766279485
-1.9774998892944011
-1.4913721484173947
0.7408651635210368
0.0384647548965772
0.23894548452432945
-2.6469091180258024
-3.1761117261821066
-3.7782059823611442
-2.8391265024894774
-2.844932006045656
-2.981450854098512
-4.248296417297246
-3.7882628160751697
-2.759552499872529
-4.781276579185535
-0.6495357595272316
0.45307079855992866
1.2053579157976246
-0.40152082534014305
-1.6004048853677504
-1.033752416414348
-6.623754754073491
-1.7994754779475246
-3.526355529140416
-1.1064915373131046
-5.1187262396341104
-3.655332510374305
-2.9491820262903667
-0.2050355386073304
-0.5203869384255041
-1.2477042903871458
-2.4123212298563304
-1.5017134724999808
-2.194341333948152
-5.149730552360108
-4.111830393400887
0.24322684769178557
-1.0720846543815004
-1.6066276142235645
-2.112832178440858
-0.5786232942809485
-3.1414482926902427
-1.4572140271233252
-0.051209228387877934
-2.346436219135486
0.3587679517140019
0.6398560806762732
-2.824059977754594
-3.113091310751161
0.5797293745082729
-5.890662607658156
-5.700485896430837
-0.25016208745535257
-0.008397138710278411
-0.03703477574519821
-2.741305164525838
-1.9782653649099957
-2.8621277359302963
-2.2735972324815625
-0.8867630457760829
-2.31181919958889
-4.270816141099424
-0.60088593667331
-0.9806304685448658
0.5388120936369745
-0.9171848941331461
0.9747716372076586
-1.184235144046014
-3.4490853658951557
-4.504389778117529
-1.2192189830707352
-3.4411871587350613
-0.6468176737713174
-2.405370610071832
-3.3047878479849175
-1.4190170700009623
-1.8672376008042937
-2.0530914742141
-1.7788617505833273
-2.125915485678767
-1.9578041594607212
-0.9264774781097382
-5.250991337975108
-2.724952798035003
-3.745948044683647
-3.012840292119398
-0.6789406789731857
2.286375713309031
2.6464321747247324
-0.938623223535962
1.6704399291783656
-2.906240156611564
-2.817053685169883
-1.2763587174767905
-3.007944450512025
-2.181670574317071
-2.5527929321724847
-2.8778705029360854
-2.2340380116413043
0.32380634150826204
-1.7928070036161499
1.5553378976344754
-4.6471942255365555
-4.3808342730676175
-2.0517174012705475
-1.6825756865442207
-1.8991504840488471
3.827324828412295
-4.302157576659011
-3.311683982672723
-5.711350804326638
-7.547947146297379
-2.075855997589445
-0.30353925956270666
-2.4616145414295643
-2.7605287489575865
-1.2093484737643425
-4.226209662894696
-5.094467336062857
-3.6446773558287626
-2.755895779626005
-0.4029598915846527
-0.714181167590767
-1.3804484088707865
-4.577020233318173
1.315654511176522
-4.077494419759821
-3.186577943157074
0.5318971345298407
-2.884075978930087
-2.1310374536541117
-6.382626507039737
-1.7406740482614127
-1.3523155184367246
-0.7154875884678099
-0.3847065452578868
-1.2868708861401943
-2.230621460344052
-2.532791565784506
-0.293129842259523
-2.020178796868902
-4.892364085042995
-1.2780471623600207
-4.5757413016207
-4.3588588658042475
-3.4228128002143583
0.9497001086990949
-0.21436870746699638
0.4310393984796281
-3.8897886874986307
-2.933519597998829
0.8780938292116625
-1.34740405410578
0.8250585859799492
-2.579050417332615
-3.4578846916708885
-0.6503920104386233
-0.31068346921104506
-1.7965636977405621
-1.7390172112239863
-3.752690147092934
-2.7808057790156133
-1.2333871254234177
-1.4238658356990586
-0.5578692211608678
1.3983056637912168
-1.8527035107489442
-2.746283037312323
-3.3064838605951112
-0.17325590031965674
-2.210420731583746
-0.015681915456524986
0.9631812972793815
-3.372575100503135
-0.3894104434469567
0.40930781449302817
-3.3217577645070904
-5.026189102139922
-3.169807452200305
-4.3392484436524015
-2.1884652480447704
-6.614597664498935
-0.43465149297029826
-0.38065977879889523
-3.7905647846724406
-2.5862050687317977
-1.0004693617431246
-6.62289852449303
-3.9008438035027346
-1.4566755284535478
-2.5733743250262897
-4.783887640300126
-2.2012780191024013
-4.958848039393664
-5.8098635494066215
-1.4456547847168257
-0.22582878338710416
-2.0196925465952473
-1.8934911337033182
0.6670745702467309
-2.0994611972182486
-5.509902041114219
-6.162844884100785
-6.316853048355512
-4.487663674175083
-0.8097661541787624
-1.4255320771419702
-4.125026584129861
-3.3978508861638095
0.7345108965936745
-5.641848697717399
-2.2936052128482567
-2.210223528012754
-1.0119464449210296
-1.6147835007563296
1.3024281058624447
0.14339159365455803
-0.9869046438221495
0.45423842954185023
-4.212908019417429
0.03136587307211968
-4.970095578846103
-3.4244077748364132
-3.51175084410189
-2.995739721070511
-1.8001893416316095
-8.272004896066697
-0.8560411235281469
-3.1364847618482607
-3.0723937360793054
-2.7050738828978718
-4.524645993356449
-3.573070765346418
-5.746052572632543
-0.8032467715967184
-1.940725984326301
-1.556483052673081
-1.7174534551094813
1.4911432691360684
0.3881293977097228
-2.309412390628717
-2.158789438497246
-4.238100274088382
-2.691004285618688
-2.200121172306419
-0.11290089866925494
-3.1722525252362965
-2.3603998156478547
-2.8049511459487206
-3.564233679413331
-0.24868090271431806
-2.201635335813349
-1.6674192712953602
-0.8516918049579254
4.096993050992558
-4.861101604859574
-3.558957815329635
-3.3768864966072036
-8.088278496509764
-6.736476864983108
-5.88006891605354
-6.508003363353316
-3.902634255347807
-2.666420190981821
-2.1892802754964444
-5.707260196609941
-0.14806011068371355
-3.7148885357013963
-4.593699589296898
-3.32892990398614
-0.9691142580059163
-2.1232505351450146
-0.5462947122301087
-0.935706684362947
-1.941626703151582
-0.8182590325399764
-4.2312619378085925
-2.64452871375629
-3.214277184103271
-0.1708008722618949
-2.956981830475388
-5.242772663393069
-1.3967336570398827
-2.1374997570660095
-4.6476855002929796
-1.5473509494799864
-4.100340616822224
-1.5024246091863775
-4.713741693803856
-3.3317486075141156
-1.4790558705825678
-2.0656077504545314
-2.2626200811298274
-3.6568329804240163
-3.7286802646398054
-2.1257301808486027
-3.7641040813127233
-3.065295148020146
1.7898736373593425
-1.2347758150985053
-2.2059620309486
-5.7001410955375995
-7.085363832967788
-5.327268146952289
-3.909763842227501
-3.4387498277576003
-2.8087758779815006
-6.752441988759186
-0.021733612090461277
-4.11493169133862
-2.3169110389335277
-1.5813217884542419
-4.153509753185165
-3.8563629865790636
-1.7445427760466266
-2.37922628913133
-5.724908212885325
-0.8227100646998953
-1.0065263593755671
-2.80502272640706
2.2178123972593555
-2.4539193662256227
-2.793674314143927
-2.622240835962446
-2.2003642856289067
-4.13459030774725
-0.9049810450436835
-2.0873020727118634
-0.6556642582465069
-2.9148719540085377
-1.8549344103061964
-2.0954500555754487
1.1650877827455253
-1.5783865157563082
2.5711112624027903
-1.017346352073434
-1.8390785143828332
-1.2505504711111306
-2.9811322498126094
-0.947123678080336
-2.666232529134051
-3.251461852798291
-1.4617286868986241
-1.7546776181368584
-2.052469104930206
1.0280624412947292
-4.895566632864268
-2.9113233393924793
-2.9899035451576847
0.8169830487196003
-6.790647326179218
-3.222693106759635
-3.1318890763621785
-1.549161399704833
-1.2565574019092371
-0.33363114707016106
-2.0150745121343543
-3.291003210512724
-3.0099351257966234
-2.55269587587079
-6.018849047569142
1.069534277405277
-0.6461541174013048
-6.024497203590552
0.545549355884266
-0.6839080182985036
-2.199606480620942
-1.2064859299023405
0.6013443922738477
1.2164587776927813
4.132343510021247
-1.560115857599514
1.493159249362496
-2.0514361080023025
-2.8841950547902218
-2.069651999946009
-3.2108096834535953
-2.4042606360175554
-3.58375139940265
-3.3829025899975713
-4.260707114310657
-2.533587251894875
-8.415167210040046
-4.12671035251919
-3.0922261565314413
-1.358092736155642
-5.8994533562138916
-1.4033880478818275
-1.6868081004497593
-2.70757930600427
-4.301273071490025
0.3232473318309273
-1.6990110645404344
-1.9919098031510092
-1.3352601776503679
-4.236365791604414
-3.7852788279984946
-2.489711564730572
0.31116975272521896
-3.620280817422258
-2.7735004802197656
0.6337292834657401
-2.0358648669164343
-2.8055190734058253
1.3491113314177976
-3.846355107287054
-2.043654704117219
-2.8980871994014348
-5.55219140331025
-3.6232857048592804
-2.785637858130161
-1.99640128991383
-1.5418635668998504
-3.1799741038590135
-4.113726384893872
-3.4413187126499314
-5.247476871416338
-2.7632919477599436
-2.4557292784459857
-1.1331189589347355
-2.29242731518533
-0.7896912842318632
-2.3740474342912243
-2.223153615847597
-0.4999579048904558
-3.509114521336094
1.7205391085730943
-2.586937697471582
-3.3943156109086075
1.0549184590177818
0.806435939036063
-1.6174625419570776
-2.5542103399539418
-2.977387453328261
-2.6605513452447602
-0.313824410198526
-5.546135135924078
-4.54647593800466
-2.742713505875357
-2.3768864165660695
-3.1354950782979034
-2.2159691446444922
-2.298315243397632
-0.7366479825840441
4.611175494861533
-4.4833982673959065
-3.4991382416591104
-2.1609197790562975
-5.311467680112774
-1.5896311576043074
-0.04907455569916844
-6.0225348590183065
-3.201365871827868
-0.7685087924487415
-0.5846206488617319
-4.4184940056627005
-0.9470535991547896
-4.798499833258664
0.31649416077908693
-1.336790949090169
-1.215597337292047
-2.5782471928639996
-1.3292532524518272
-1.7918800378554116
-3.1170820529491055
-1.1042560766955167
-0.3651819172485994
-1.4219656615861251
-3.3050780477662203
-2.7413388274713006
-0.21977769052402152
-4.236968718734431
-1.1447853979201208
-3.5871350945726093
-2.657273520661434
-0.9843698497174794
-3.716570516130007
-0.35577601726423447
-4.490104131025265
-4.447254956323131
-2.1718697710424673
-3.197272229999793
-3.2468606140587
-4.847182763326929
-0.16184166919934473
-3.1372814074403386
-3.297038665429806
1.9483898042679406
-4.384562259128362
0.18653372684857822
-1.9354800590886179
-3.3810391169850567
-2.9911854144948675
0.4677922733811004
-0.10871796084344335
-7.436403942308004
-3.721926164995978
0.3067664635831817
1.2011407090075163
-3.7154713664689085
0.3234014621766903
-1.3382107832179653
-3.5486423565332474
-1.021136372442128
-6.301632345737413
-2.264223303870369
-4.461528009792363
-1.7774348595326717
-1.9887402133722933
-0.6142980638895587
1.6621819083735458
-1.9819640249606247
-2.0582946905573216
-1.7547184769685227
-4.499392214610715
-1.3267208897589509
-1.8236174488692036
0.46893101585123975
-5.587951295585934
-3.825820670102468
-2.8829783282635417
-4.6704760824343925
-5.023174093718333
-2.864688256441237
-3.974754357467149
0.10723375635849801
-4.087938616698271
-4.188693138256644
-3.889930145603148
-2.5244216227999723
1.137653701952512
-2.508755301326109
-2.0681292800814903
-2.53029242641834
-0.7036855975805806
-3.3588331183195805
-5.53910424354876
-0.3350126945875844
-1.2720200236147972
-4.201222699517057
2.663736575217872
-0.9891902715402504
-1.4916575225792905
-4.108180107333281
0.16995431084434054
-4.888680959007432
-3.2379080174000072
-1.3217639697500139
-3.2255971077609207
-3.0587322339801797
-3.5161821868039542
-4.505668938794455
-4.125197836932816
-2.1210084247080943
0.6785981585838446
-1.9993292027457699
-0.015156203533086552
-2.0162650523053953
-2.2455191870682922
0.5737252370891212
-9.49972739918263
-0.5954401200099901
-2.8708049339346573
-2.996131994232418
-3.288861536025549
-2.128760198733442
-3.2558842572460587
-4.680933812771956
-3.908267143906554
-6.381466546926238
-4.552953259864598
-3.4041648685348402
-3.2591042925174407
-0.25080541687213015
1.2566253428847003
-2.7509380393111815
1.2352430052924954
-1.469054937473815
1.900057457207738
-0.06858968334480872
-0.987476946179616
1.7360325021793561
0.5539618923851244
-1.4857395842171741
-0.7411055740207545
-0.7661725152155467
-3.1555687560809598
-3.415604158455876
-2.6219027873169694
-0.6419246648189392
-2.0932078311411817
-2.0474818435740136
-0.23281678544589549
-3.9493067111840023
0.44693366179912397
-1.034392378236808
-1.107541400446469
-0.6201075756707575
-2.5756025514021754
1.2442192135109318
-3.9130590262490634
-2.049465787894058
-2.334077010946201
-2.141476051446671
1.4136355982437459
-2.169250949929211
-3.0502495184255416
-6.752083778069938
-1.9460671200677684
-3.253393541455996
-4.518052406491494
-2.667727674887673
-0.8929310044283352
0.5438911117788983
-3.962593499638044
-0.3568825004461867
-1.3653824411622597
-1.029093642672432
-3.530747425275408
-1.188317878500115
-1.81327487740268
-5.266425521159772
-1.7304817275584419
-2.129136591467846
-4.928569513617274
-4.166246450612273
-1.8372260617501128
-3.046483494292785
-4.648412541272883
-2.0040571717450684
0.23558294100911592
-2.4842827019223175
-1.3648702290965544
-0.9310707646308563
-6.071053223133428
-2.774892199677185
-3.761462315261159
-0.8724107354596654
0.35637616907728836
0.39637415204005905
-2.9466238417995614
-3.8994640897234856
0.050526447496355764
-6.718814953724661
-0.7522641110716751
-0.7044683215538561
-1.9538290338326498
-2.9113952780232055
0.44911422239951587
2.931194323249185
-0.6116247659681029
-3.3724280461730545
-1.0420512575875112
-3.9772805626506904
-1.5288029893763957
2.672678639386962
-2.317146547490173
-4.004173575426534
-3.609579449786528
0.1575037724352479
1.1211672351320978
-5.291710136901959
1.5846901297054445
-1.762079532158702
-1.6310890659526112
-3.0737643774736125
-2.0908871382216736
-3.971960016185285
-1.87758763033309
0.49354152789372147
-0.18657273401701358
-2.1507312965929364
-0.8540746212386275
0.2471368516424988
-4.4585080111240645
-1.8772582637803477
-4.453494530576974
-6.265149578948582
0.1320220293314286
-1.583681354315229
-5.605291878753584
-6.149781785400705
-1.2502908417972243
-7.680328535972548
-8.108235240452974
-5.179386809283311
-4.534694044111158
-4.9188573163272915
-4.969982189382032
-7.054167600761938
-2.0847476187154848
-5.612938975723134
-5.575304925078584
-5.901840232283604
-6.25628159535641
-2.357684432514286
-2.343508258922626
-2.7052493713306083
-3.513603140339532
-8.242961401475796
-3.3256551514331836
-3.134875512295896
0.8568892404091937
-5.482164006625455
-2.042957154982092
-8.291757325862157
-4.677736535442479
-5.373079681552802
-6.260449367646438
-2.068668095717695
-1.4754086494327667
-1.792651762965991
-2.55287931097503
-4.170970973838733
1.5526867253718135
-2.7101839578218314
-3.941273801197246
-2.9989301871500813
-1.7879763564836568
-0.9182871432945632
-3.0621329060185283
-2.2394523472468935
2.373801561955655
-0.10223544508428253
-1.6044169445173584
-0.6015520185802629
0.01958879758817705
-3.6778234712886024
-4.539652934028569
-1.71588275598559
-8.280252434434548
-6.2641975179646545
-2.8243824325800873
-3.1312989403230302
-1.7832833874236416
0.07212859263424196
-0.20081783518272106
2.7457082966533535
-1.5519986130107988
-0.4878630971509885
-5.330533427313485
-4.39418341208263
-2.9487807793402254
-2.8068306667729606
-1.678393531350486
-0.272956381122193
2.2174699020625366
-2.370072929998159
-5.985073976286307
-1.748785430351791
-4.032334368085439
-4.037266056402379
1.7536353986517605
-3.601999154685609
-3.2161271592007794
-4.123310271765611
-0.2572095697334638
-2.7342322535177592
-4.186838271897649
-5.3460872108169095
-8.324387371713787
-3.8383352247880054
-2.399126555448309
-0.6171571945123816
-0.9152753044055753
-1.88829814640806
-3.6872850502494305
-3.4409471394563957
-4.79159261665779
2.0123445179023003
-6.832462791211571
-5.851234873251369
-5.741469218033109
-4.161760972114213
0.3773360398061877
-4.5774484654831475
-0.18726970069836893
-7.100231243673019
-7.072424538096259
1.6808107860544164
2.151585395537334
-0.15263211861189302
0.5102133079415011
-7.003021945172567
-6.65406548304252
-4.789045620210568
2.0212973173205913
-3.9083960774642184
-4.787360106511368
-2.7684079896435683
-6.695206783865353
-1.9158875966960647
-3.7988862936812824
-5.274254197222125
-6.700345830187826
-2.989618924792337
-2.30215231464687
-1.7707350282854928
-1.2318043055258043
1.9025068223905
-0.0907621662059858
-2.8531760628141893
-3.438663251512594
-4.408895010499996
-1.595782080361902
-0.6696202459626809
-4.6957947803942215
-2.7462063500711125
-7.981444724497573
1.976972059349889
-2.8092923472171876
-6.110560181289655
-6.37003232560595
-1.6241227400544633
-2.6968038878558485
-1.2950888229705944
-3.1257157001829143
-2.8776020066838015
-6.538057347986535
0.6365157014235204
-0.5870190065151806
-1.6531791811471306
-7.085674972912856
-0.290402633311149
0.5742379019451264
-4.1771822399442735
0.12163690471426826
-4.075695117008883
-4.8789871427197715
0.10771194990210797
-0.6009642360812913
-0.5096253051672492
-3.244475532471107
-0.7505940990769521
0.13983452862606463
-0.04403974714435527
0.2938636886933005
-1.2786012612076467
0.8246505220252316
-3.10880836691919
0.2262989702940794
-2.8146095125102133
-0.5827932568603954
-3.695252682596667
-1.6522438707714056
-4.824415652362229
-2.2134370360578473
1.026040575127819
-3.992314101983272
-2.1234971981448183
-3.256421264174055
-0.8610442278688062
-1.7123037845177986
-1.93386511588016
0.5674032416077944
-1.5704305269157237
-0.16817194027339746
-2.1391291738589837
-3.6032395985216135
-0.13951487009136881
-5.785139156187639
-0.8833400696146531
-1.874343155969495
-3.710802658356932
-4.462661375869
-6.187196994861577
-3.511447470128591
-2.622551831979689
-5.947305698336677
-4.321654651816874
-3.9957468015783286
-1.8548657995407178
-0.9149135770337328
-3.9894257170359366
-2.2271257562379723
-1.6818948132970257
-3.708305416360205
-2.0826987978948197
-1.876828166550204
-0.7236144063910263
0.3210321896198982
0.7459038866356978
-0.897912973329453
-2.209285414470134
-2.4563395149521745
-3.535831734526315
-2.436927030949557
-1.594463302385182
-1.7245320436626808
-0.07025655145733566
-1.771550663531977
-0.5512613342727731
-0.04082511132363722
-0.44721502456881307
-0.44905397875775493
-3.7484081001544665
-2.9369797804719315
-2.1390389471409836
0.2882001761839646
-2.707169322437282
-7.02461764570325
-6.123383828587013
-6.909700096818171
-1.4815752138604195
-6.925130346970033
-1.9268446273941116
-2.664116495931695
-2.956678520411013
-4.720186472396892
-3.6179328712053573
-4.264854767981942
-0.5875122676122315
-2.946988485751529
-0.29358235091436896
-0.15072571254147868
-1.3076320048914734
-1.78886648996744
-1.6498605926580678
-3.8261886353047605
-2.4276747035044286
0.5433464529724324
-2.958804462525412
-3.706851605441784
-3.1701700671433333
-3.6688371286532684
-1.481353249319543
1.1617963754233787
-6.525664836182763
-0.31391587055761955
-0.8070376467173288
-1.6800288677771416
-2.774218435045278
-4.003448503341979
-6.867594213185551
-0.2965123731356464
0.7604868784899362
3.5000614833952177
-3.281788808500614
-1.822584745489963
-1.832965691015125
0.7654016313408949
-1.4484355798278914
0.36284075076733857
0.20585424421682486
-6.264250660635701
-5.3334222559603255
-4.737187158605653
-3.429513883581805
-3.194108942937626
-5.051753927385755
-1.1682260613653312
-2.6541130408037747
-4.04651899495104
-2.4243064021761755
0.8385544737223659
-0.6873516807036149
-1.2806313170577401
-1.1032535612063452
-4.465328369120372
-1.1922910294753164
-3.529198547572354
-3.788678617525918
-2.1168299740211753
1.7070744986733697
-2.2100958216165116
-1.786087820881871
-2.571865489493679
-2.7987063146065574
-2.8556521148399336
0.683948746969696
-4.477431093014179
-1.1513223937992465
0.06574882276143741
-4.738586822366089
2.2988883940031535
-2.8041796698107637
-3.1382404581720347
-2.6527073063420863
-2.7581096401464573
0.7363542975798409
-4.208801835897618
-2.419220230569806
-0.246676547632731
1.300080413477064
-2.595877910686301
0.22058493590560718
-2.1616278850427544
-4.643897451247979
-3.328009012737344
-1.4361164979236665
-1.729919953175929
-5.046413206381023
-1.872147468261608
-1.4857760867978402
-5.4863210399698925
-1.7074239738495984
-1.8032158978852375
-3.6452569321898367
-1.2385098378625892
-4.171044627342986
-2.3535171173658505
0.116936645388042
-2.0597828632643513
-1.629687926047718
-4.018052186405979
1.366895970963741
1.7024692273192554
-1.687615980428854
-2.59709562757322
-2.3407181736208873
-2.0985546570749594
-2.7869013681164514
-2.742660804051634
-3.5971038711950576
-2.447531083836491
0.2211220362264658
-1.640692477185991
-2.521817243000346
-7.491408931289582
-6.577819845861743
-0.2063520068468398
-1.3052133633714051
-4.260818048384642
-5.838836591618793
-0.9193016876309208
-1.9367612797623497
-1.4524594343638242
-5.428969251690714
0.8953420412064265
-4.5947940380918615
-1.5542588592840696
-2.802954938565219
-3.604493704952443
-3.8640284250954946
-2.1806707963106677
3.0820866933738316
-2.010370291727476
-1.5222323761883143
-0.6385012933430524
-2.6778963067642
2.749248166819165
-4.583548073439525
-5.130146080001316
-4.872117498821429
-3.181748643644076
-0.16395982762145406
-1.9121005360645182
-3.2916711942857275
-1.9392138752356076
-3.3864668625913237
-1.4397086595286657
-4.133723832755682
-4.954364736437919
-4.57940287759058
0.4151799926278751
-0.507370446201136
0.32906036738337224
-4.018420600944885
-1.1530059664589312
-4.230253630435973
2.969477804751413
-0.8733799723000051
-0.9312022058527794
-0.9312208714601571
-1.184285436517267
-1.9519760700342017
-1.4596489456419135
-1.4571686717422412
0.4686754997482695
-4.399161527858298
-3.655830697067292
-3.3302400100788767
-1.2060108307527224
-1.643130471033922
-4.292888278256567
-4.4387772760368325
-1.3908745449534572
-2.4984554502640224
-3.1577268479970404
-2.2825230828896106
-3.6645777517609317
-6.284633735293799
-0.40988920389220634
-4.5798398048103355
-1.17824626937592
-0.055932189980147935
-2.5883558938255207
-4.265268251556314
-5.494739120829382
0.1099344659781879
-4.930472421211621
-3.2842555557884157
-4.068529601042478
-1.8397404763640357
-2.011351883356757
-5.639341400446978
-3.6124408528473215
-2.618756787382454
-5.103619451434319
-0.9371617263389059
-3.069564497229499
-3.8479425935665796
-2.567301064445349
-2.5118626621921267
-6.97732453715118
-1.339281493541104
0.2505727750302321
-0.3741406483021086
-5.33803296089043
-0.5822351647605469
0.3219742957062116
-2.6701832702964965
-3.154052417821788
-2.8529238422525585
-5.0083475375271105
-2.679676064325138
-1.8037175345439957
-3.597307594654452
-3.1547211190009063
-3.7290981506447096
-2.871056928675261
-2.2629798280088984
-5.182095602336369
-5.975902186388694
-2.6306588217876388
-1.7261674940994232
-3.5166934985400484
-4.962626209460891
-3.5312303565815233
2.6195788849874777
-4.373840470738119
-3.5618904014771378
-2.54858344722227
-0.4696225462932265
-1.5820634323823333
-4.743752488849181
-1.6410543170535092
-0.8986214603994142
-4.518240009249483
-0.3247921720277473
-2.42570119659774
-0.19228993465073468
-5.785349943663406
-0.9114882125481532
-2.334842608755415
-0.18010536706868893
-5.858895278763475
-4.489015811651054
-3.4533541471845157
-3.004639839516014
-2.5742347106883074
-5.054256515474862
-3.730427278802848
-0.3242581872064712
-3.824252691515235
-4.160672975763931
0.429381955373345
-3.9725427697565645
-1.6730458878890897
-2.5858851532504508
-4.05956666887238
-2.9386308794335076
-1.3051939682250626
-2.7196324009409425
-2.270913274721798
-1.818785478013157
-2.2104172685333574
-3.654692380996821
-4.494837308311318
-2.9363961570883435
-2.0083319905912247
-1.5059633857848134
-1.810054562018742
-2.430955930051439
-6.637336115068714
-2.697735690217069
-5.268870217669312
-5.5650344365021
-3.765217814916808
0.41616921273929164
-3.2749805506028453
-0.13605573387246075
-8.648136579726376
-5.071625592674592
-4.082636954009308
-0.8804174062595369
-0.6387721345697023
-0.6306880351738509
-3.056545210299248
-5.51347534232416
1.3570180938901684
-3.8885326578615182
-3.4542075956095326
-3.121097890459917
-4.3498749326018835
-1.224065565291704
-5.692890974203279
-4.742456829535437
-5.699785475583508
-0.5014296840896448
-1.7250959993454433
-2.2673969303082093
-2.7659401848095615
-5.431872139100565
-2.4187075192515284
-4.570362647714604
0.8447745954250984
0.47288289827718033
-4.786202245148073
-2.4370245497520693
-3.1251143081688366
-4.737598873241823
-1.0720088490400952
-4.5006745640404615
-2.784387325047641
-2.756939606812103
-2.580895234690784
-2.716616171579347
-3.1621379511022027
-2.578823341275586
-2.5117388164462184
-0.3700801332013632
-4.110613275884716
-1.3723108398117239
-2.395128084634008
-2.961266955105045
-0.5249003143689182
-3.5115158988558246
-2.6308696218345347
1.1534157595701398
-3.685152823298757
-3.9299314640069603
-7.589788446305954
-5.2656918636645225
3.2281409891271062
0.3057247746811177
-1.0741294948006965
-2.4481149472148958
-2.142704997733556
-4.9592202616270695
-5.320304009955594
-2.061104860326527
-7.819706914828189
-3.047330462119524
-4.96598160149049
-1.7879031301098494
-2.053964950207399
-3.2266190143572153
-3.0599918621178412
1.2630039837828249
-2.9658553346564447
-1.6500243212655359
-3.414296519075311
1.3658501760119652
1.0255028473662535
-0.4729807294130769
-3.7548702318596776
-0.5891278040669592
-3.576934463884569
-4.017292622088771
-1.670569085794912
-1.0619260232627457
-4.641234757254477
-2.1400042374379966
-1.9279337497937612
-7.347249720721694
-4.519456923429386
-1.8331905724352087
-3.343920257185718
-4.962954626549789
-3.930181367948196
-1.545346350366067
-3.147345815288558
-0.6273972761061735
-4.014361796347695
-6.144022106817875
-5.1958499143926415
0.5823767849103995
-0.20484835377026503
-2.4578209758219636
-2.0523262862660494
-4.6671251150676225
-4.951508622358441
-0.24865118767265862
-8.113076570340258
-1.6478994028967744
-1.2983430527418263
-1.882665325616994
-6.48125547893326
-3.96200079193217
1.3389536778074673
-3.8906149143093476
-6.140954421109277
-5.804035524765646
-4.311136667428603
-1.7870169201689132
-1.833052558234594
-3.5700279790874547
-1.2228758682818863
-2.5824677844318193
-6.407038185691445
-3.2487072394049052
-2.9748573265587703
-3.4451076805974403
-2.6840994051494937
0.3151940298378573
0.40856894412782
-2.9274427296428276
-0.3940843409553688
-2.0082613960433786
-2.9474512267039668
-1.744965748867262
-3.4738144055633793
-4.74606384835871
-5.152219276762699
-2.7062470836183863
-4.126467541715458
-1.2667344430782952
-3.2746053369917787
-8.091225131076502
-2.4884295251989577
-1.9534361763259627
-2.501244398379118
-4.043481777640571
1.2773715088981885
-0.4312282483918171
-3.4427786678551433
-2.898833590373378
0.5057931164905339
-5.471003389633024
-4.977920082093178
-5.4465439005084875
-1.510853519763075
-0.07255280847590975
-0.6580154311713745
-1.8510671584943494
-0.12790248440829285
-5.350108042581019
-0.7736494614346644
-0.14345303251814348
-2.840560338512961
-5.263184892054342
-5.907669679318623
-4.117918096074
-2.283389344621536
-3.911679588593585
-1.9902323426172035
-1.9708445579014222
-1.5336866567857637
-0.08214776256055963
-2.384492006446709
-2.589304039186485
-0.7948652538414915
-1.5453771810348833
-3.0368511615163136
-3.3248528248385107
-4.017568784965006
-0.32147288633527854
-0.4647489025683096
-3.850555008872299
-0.14409118605278598
-7.873138275127399
-2.8189489043984697
-5.019970437016403
-4.135518084584881
0.022537458978059983
-4.37370497852654
-9.9898283964166
-2.3924374487894027
-0.9861507700422736
-4.023689258856388
-4.7897408976696925
-2.016712690469726
-1.77870629455602
-1.8307847919946643
-3.2276452700786056
-1.1329055333011566
-3.2429582587068633
-4.3756928119695075
-2.842300533930657
-4.3746281891709895
-4.472392778170396
-2.4657090504914185
-3.941757444931187
-7.538457790498671
2.71771277930715
-0.7481313756603866
-0.9396426429482589
-6.99552415725549
-3.839684031014355
-6.575697004665641
-5.711604270946592
-1.6611763873680283
-1.5296703414558144
-2.7660316897452444
0.5778223462260194
-3.431972981637832
-3.3466989803592258
-4.6838826735240815
-3.0706031811011565
1.7191350359768574
-6.449794169979844
0.4282584929892524
-0.44800060364467215
-0.994484953277376
-2.4888690731801804
-4.6268546536959
-1.5327412968135017
0.2460732226429355
-4.255938313538409
-2.1445639866311597
-2.477316251973302
-2.109958144143165
-0.706725322254875
-2.6851915715794807
-3.049992105523927
-1.4913418519226187
0.37382116142556665
3.7602870173575043
-0.9220006093760713
-4.217734782150314
-0.6949275928620903
-1.1747940893869955
0.9393484771331717
-1.9806936416729546
-2.8918122284035395
-2.8568662633676287
-1.994925130040653
-0.8341309631227461
2.751036494417193
2.5607068734256915
-2.520590193959031
-0.14260966319372775
1.1444755026338282
-2.6657533805097002
-1.1765146723141802
-2.183992745869672
-2.5664157188285897
-2.6443660635166295
-0.3774965143388564
-3.758872432297504
2.967289105362946
-4.059220873489934
-1.2672504138999516
-0.10788015151347993
2.349014496162392
-2.853952713447858
-0.7729214855914892
-4.379767279206769
-0.33804651078135095
-3.3958315556371628
1.2407848771072472
-1.082422197276969
-3.4575704621264225
-1.8732041692895434
-1.4601857893697647
-2.1964679136790046
-5.070155458596697
-1.1657256736328236
1.4996930206998753
-5.695919567514001
-5.16066485481817
-3.447638860377141
-2.55939891929043
-0.9465201942745215
1.1350783118407024
-3.1166465158730414
0.18539405633892594
-4.384061419279544
-0.1355553195782233
-2.4600303570965507
1.3413361594023445
-0.8993087832002137
-0.9003805821970712
-1.1232267162810832
1.465318514777452
-4.900489970044054
-2.6113815380342063
-0.18859620720456205
-6.670608094443033
-0.840028297233331
-1.5201147233059182
-1.6969548123673848
-4.44154926464843
1.462307300661132
-4.247093108418161
-0.4644971223899824
-1.075110405929556
5.409946054742043
1.5184133522601073
-3.197893899262026
-1.94580878388452
-5.284836001256407
-6.5781873138613856
-1.1725709360253578
-1.687165741276399
-1.1025673629710453
1.0872222410803254
-4.261706494194686
-1.2990473069778568
1.385090518018419
-1.8358004680767437
-2.9029841968169463
-2.153993839203629
-4.298185912050961
-1.3991390599396856
-2.7253200638196855
-4.841805665582296
0.33687696590748556
-4.411716294297894
-4.690140498274244
-3.71097420589191
-4.8672032877749976
-1.8581216585965266
1.191113346255848
-4.30362368134831
-1.9266657028453356
-2.610074598196903
-3.1409896038559313
-4.456898257799453
-4.43900329271505
