-4.660885957856596
-6.127347523233272
-3.369525657726831
-1.1115702524442084
-0.8799418553133566
2.0164237796904017
1.3852925837201686
-4.556402837627869
0.7506557067985464
-5.861804824940987
-1.253717643534744
-0.9896174695642489
-6.4485365103656624
2.492505480261429
-0.7639186608990616
-0.6066816155124697
-1.2248915804346046
-0.8129810499577418
-0.6846394651855517
-3.4534908544085297
0.39565490513491375
-1.6136997952380607
-4.4578773981258495
-1.0443429851873982
-1.5154260622199185
-1.848513765878053
-1.6700485790762878
-0.16179048592591555
-0.10410023377731971
-1.647326558545359
0.28001717301905726
2.5816618215873204
-2.743877402005599
-1.69745261850378
-6.370113868444557
1.5596573646977785
-2.3737191970312423
-0.7281186385014479
-0.8858077324213871
1.4303446597802079
-0.6024905943615069
-0.9146268713650246
-1.0382364574142144
-2.243133678845479
-3.727192571242146
2.409341509307841
-0.07577570388389868
-1.9354592052647213
1.4715860770197968
0.19269843695746053
1.222317579056271
0.14111137768791007
0.745225332757273
2.48633280199332
0.7571362933268927
2.8615914173831367
0.36944198124793065
-2.759054016576808
-4.460747706924149
-4.746916331921534
-4.675553691647684
-8.123891645722606
-0.07751664001335486
-2.757929234376795
-1.5608371620389812
-0.938332272733822
-2.084908823414577
-1.6202432276619492
-3.620542727920204
-6.095855864797696
-4.342260512672964
-5.253610010291211
-5.846813915438325
0.19924502698742047
-1.5015898054038905
0.749883082167473
-2.7259235838696405
-2.06670837456225
-2.93861894974537
-0.5001485075534453
-2.345993688680907
-2.800309872089681
3.08331727713076
-1.2706824153546683
-6.074080699015546
-7.386442577142936
-7.850937082907072
-9.012432110759637
-5.852069392090942
-1.9191945913436599
-4.3432073230187855
-2.4520189536131087
1.4755693274861492
-4.44530424501619
-1.9411339413883872
-3.5059356484518966
-1.6991409211912356
-3.3530154703478994
-3.0300206593497125
-2.032794245510406
-2.718698011206483
-2.9381686380638854
1.3852925837201686
-1.1812680876817887
-4.437622779209796
-3.930005862125533
-2.640898249370081
-2.908220188606649
-1.5498797168581584
-2.2626436716898852
-2.17472559420784
-0.6882155331839492
-0.24464491355402027
-2.725880610975289
-3.148995429487152
-0.9950956393788981
-1.8967341910466586
-1.2797039158557046
-1.9688794548158348
-0.9194154224025601
0.2640022309186439
0.12957441441768738
-1.0370867402087822
-1.7211917059692645
-0.05206976874687666
-2.1572130408815084
-1.6523040358843382
-2.3681491728879878
-1.7041575201011814
0.59306467134779
-1.8715777724118066
-3.1475845782442393
-3.00478140910068
-0.8994791365487188
-1.0185507730693006
-0.45432440357777
-1.8737849363465944
-3.976761438419804
-7.724509541588741
-6.954581294578467
-2.457665130677552
-3.2277144930175843
-6.931936325965843
-0.5296172688023993
0.09933180051204639
-3.1510084457987433
0.7947398444310463
-0.8187936632364102
-0.9340256856936391
-1.443625865452968
-4.206308124005081
2.482536868865742
-2.872665150057333
-1.9808066620351366
-1.8137093244035345
-2.517963092786751
-0.004162311361881391
-2.106853397958857
-2.2196402470678787
-2.1574914233149283
-0.2514828097480662
-3.2494356511766043
-7.479382481024376
1.1998084772651816
0.20986990145672052
-1.5587635741416577
-3.0820527828382733
-2.899120554443824
-7.9883255049123445
0.25415082058897304
1.9555517457301954
-2.339238067516335
-3.4722463240274566
-1.4221836212837733
-2.7021830087127205
-2.957537546789973
-6.3536815855323985
-1.473759659076233
-2.325252201141785
-1.943485083788845
2.834818417455722
-4.629845040950608
-2.9522150568856054
0.05299031035622168
-2.916581717543427
0.5600044559710727
-2.4453685884759984
-3.0602771861619247
-3.1777174293281716
-2.517963092786751
-0.004162311361881391
2.197915066685541
-2.468708359936654
-5.110536214102274
-2.68522719574007
-2.2999781098156107
-1.1584083606141091
-4.163159557555731
-3.7456083271327723
0.16616320618665564
-1.486145776125792
-2.843309802315969
-0.44049950905232904
-2.5608022907470187
-2.9825437275081943
-0.3806567266064913
-2.0991791977014334
-1.9123735326670208
-2.150338456225087
-2.2943302141466924
-0.8968763276090258
-4.3023053531129065
-3.042643576410749
-1.3419508865507321
-1.6294018163708792
-4.4389149578121065
-3.526060679360578
-3.1634801255864464
-1.072965354110709
-0.034955839245611346
-1.095623762565904
0.5062711128709957
0.4954733846315444
-0.7001913973256912
-2.91629858112463
-2.857657565976194
2.4017462659738533
-4.093693901407885
-4.640736212882039
-5.0588694127175104
-5.320333894633277
-3.374385309227583
-0.8338620814290536
-1.1498042819924292
-2.612746309558056
-2.981605741055516
-1.3104376380237253
-1.2233129175450888
-5.086620666111316
-3.030394797686483
-3.875999093639127
-2.746544349053658
-0.7557652341322815
-0.10180837835030604
-4.811060436856724
1.6542171123731682
-2.9410708744515555
-6.188308694042838
-3.185907627330418
-0.5496674960628742
-6.064843363356037
-2.8574360935691647
1.730261106216829
-2.071088398255216
-1.8226953193176485
0.40964628820218585
-0.5907299287531056
0.8087451800640635
-2.3800060874667204
-0.5977935760760976
-0.5757051445872398
-1.1856562113799187
0.16458415956358283
-3.0136917105565
-1.3491244463088432
-2.7283654570249722
-4.958456229398549
-3.2079466612015075
1.0463732883707524
-4.030731665304039
-6.001885011236395
-2.1044501790881665
-5.999948294294573
-1.091981351643924
-2.113244689026421
0.37802720536101997
0.7062579869532973
-5.733154547822056
-2.240559036614646
-1.9263880450489745
-5.186945451834026
-3.0343389198721322
-4.761414004486733
-5.854085168095216
0.6757763542696305
-3.12570826523682
-1.1008379281765523
-2.8700166817978814
-2.055304122201678
-3.1142893373272305
-3.348083130065441
-5.682831628422601
-5.496016477009799
-2.1498608214010737
-3.962304959636431
-4.14311628732839
-1.3606710391951788
-2.0809762428678997
-1.889796134287192
-2.2079449439361007
-1.4425440098947673
-1.703507103986507
-1.310747223420141
-5.152515671157371
-5.20334728679031
1.4128330402764104
-2.4251499732949835
-7.564293213800271
-2.001773016895069
-1.2255330945692724
-4.209896086180494
-1.8839249817936647
-1.7295389925108478
-1.0938819576917753
-0.5115653011421349
-2.1498646668126384
-3.3162761457773877
-0.28667438761139424
-5.000223643329887
-4.315854630233507
-4.775732680674071
-0.25342791787134206
1.8051570011008797
-1.9014479260462953
-2.0353965228746604
-1.8403068957373683
-0.8026924431818383
-2.4026447335538195
3.700518003827736
-3.6345024245753774
-4.429120404771253
-3.318159298018463
-6.844104270664366
-0.5479382875416408
-2.133821355809845
1.3711994954762474
-0.9179805012731692
-0.43474752599001754
-0.4758375722301066
-2.419127040378062
-2.5067000623285582
-2.8689980931472157
-3.1112815643604357
-3.342631223782168
-0.26400856001874573
-0.6802763079807504
0.34121517080972696
0.2033753094440294
-0.8143510369572218
-1.363406822393943
-1.8344547625831087
-3.478444738647686
-5.197272687247798
-0.27835241413905226
-2.628099065516661
-2.134079933432978
-4.040151547979185
-4.420759965025806
-4.9365645653472265
-2.623099209290193
-1.4542502124233625
-2.6378945205765243
-4.078769399299565
-0.20523237162211114
-1.443560837744728
-0.8027809706425945
-2.9361777427553393
-1.5112865492482346
-2.466341435122744
-1.6559358358092293
-0.7548607769368174
3.0500181953005336
-1.7918707519656571
-5.026643624048107
-3.581342661082863
-1.4880589218177376
-2.486292573648808
-1.7710803398944985
-2.879061878705132
-1.2775181390622248
-2.9560454680223813
-1.3910347760441544
-4.455181032626043
-3.208666945827197
-1.5240740012636012
-6.390230671382773
-8.588078069934834
-1.5715772741588023
2.0559813235960354
0.11351206378909505
-1.3892559928557429
1.1994594113324986
-2.3045946160003576
-1.6804847280378392
-1.9096155046280028
-2.3090672239924626
-3.214946798154732
-0.13617024549329906
-0.6122722317866164
2.9508966836903023
-2.8038363379501594
1.0091629475991284
-1.5234899853689459
0.27858714207445767
-2.278162724308176
2.8794224990249044
-3.385050749041049
-0.06126179445638236
-2.931125553428085
-1.2809292866160433
-2.502283581983475
-1.1907598147865928
-5.139227071495938
-7.947295970877475
-5.381486073914948
-1.1875300611683968
-0.5033755145714639
-0.6649224490774575
-2.878880000536949
-7.9598587595610235
-0.2391820074155161
-2.5335928292437853
-0.7993690591659978
-2.595525829824238
-3.679989365022532
0.07942473870301757
1.0198777839237099
0.9889784909957946
-3.5609986854667612
-1.3843791150776799
0.3116727514546813
-1.7218307619392865
-9.06091593349639
-2.0300621881565792
0.677180111797447
-1.9231320211897196
0.7215671160153612
-0.47574948199001094
-3.2952480635731796
-3.079592491682176
-2.3197826680855695
-10.155037901997721
-2.0903653001899323
-4.6622616434937
-5.654444590210896
0.27554124188139895
-3.657702866061817
-4.386920910038445
-1.7218755478503676
-4.380322010425649
-0.8571600509001018
-1.5208945006278645
2.0880299152313206
-1.075320294156958
1.6551531160014799
-3.9348076714183646
1.2629917730206255
-3.887901618441208
-5.122921099312621
-2.3547062595798653
0.13895019041609757
-1.666780521685093
-2.3895119721105997
-1.338008819278767
-2.159710490614909
-3.532649988416282
-7.695595394866797
-7.21970140057179
-0.5606833136634787
-4.553387537778347
-1.148637347135222
-1.0673632498344474
-0.8898819414429703
-4.1853145245315915
-1.5373651125063608
1.2968571722644215
-0.3675426863455749
-3.7035792032704333
-3.225055487284868
-1.8892895510268064
-3.259974121906197
-3.3682811868374727
-7.077634679217774
-8.027632264081792
-3.423298812717571
-7.232154279284979
-3.8677349397830967
-6.075854522118899
-3.563898614242123
-1.4901692035716376
-3.883303020185898
-1.3671262620643025
0.7844940511275763
2.293016503627533
0.6360422874363579
-0.2821308884340148
-2.1022116781698466
-3.169180352584951
-1.5759405963841535
1.553345065711981
0.8955721078690042
-1.9168611940730167
-1.2866777368182791
-2.8957545791395694
-1.1048218446652913
-1.5870064045305576
-2.4574380686420496
0.28174915549433455
-1.8929482093313164
-2.339493343489538
-2.690297122883679
-1.1544969827817944
4.332852213126975
-1.1834971458638193
-4.235640840955562
-3.0076526660726493
-2.379109170185049
0.7856973996549523
-2.091689730790367
-4.529213830577032
-2.9896722055685574
-0.4736854724581686
-1.4596967971170651
-0.22703171365833022
-1.731041272582804
2.3086162975214104
-0.5423547685491262
-4.91211561377276
-2.115886968981844
-2.6624646569844317
-3.874601372869338
-4.019599951255463
0.4010788990581463
-0.6202959923610197
0.13521168997398283
-0.5877174969516584
-3.3193653466666735
-6.473066234074833
-1.3817237286934532
1.3335211332493841
-3.468621524061237
-6.473066234074833
-0.9724550030788512
-2.5232132546087707
-3.940723873696557
-4.874134383639483
-9.387186915243923
-5.524061010282562
-5.111645969827123
-6.813586089084371
-2.480235082349699
-0.74035391263041606
-0.9809737707165308
-2.3016964731351854
-3.6711286297568497
-3.956318545398614
-1.5111431078103783
-3.6417606941012344
-2.7085989228385707
-1.7701163593660079
-3.6294856772047774
-4.124758525209273
-1.1614222526307958
-1.7060590843807086
-1.3297504359241419
-3.93022563359123
-1.4782336883149447
-3.081677497229494
-3.6194101995659604
-4.676856131758203
-4.844564709436801
-1.0565837483878688
-5.514731606189349
-2.690183180317954
-1.1136568897939905
-2.4517217465642984
-0.2717056908068614
-0.24314570915878794
-4.361498214993184
-1.5617911620696558
-3.6686115351279134
-1.0693449664618808
-0.586536601491835
-1.6004957687362913
-2.716962570049651
-3.746880708015896
0.3651447389052256
-2.0863244079981556
-3.1776132595111175
-2.92535659104037
-3.8100824487688865
-0.028977855962393988
-0.7431071908216155
-0.5923244676563295
-2.847721494817584
-4.5605635576044685
-2.6473428764378637
0.6439026293938751
-0.9406294667275227
-3.772531206887279
-0.031889205948476336
-0.08184065879896733
-0.42295094257137833
-3.3904938537352454
-1.8110205384802656
-3.4793767817551076
-1.9451239376557514
-4.227533818620531
-3.0275059558420065
-5.244383094909986
-3.935916556923008
-3.13340562099353
-6.143755915478078
-0.5939410332450514
-4.062081109982921
-1.0393078097341673
-1.9102820820153723
0.05958148003514223
-4.131642933534004
-4.037729872385779
-2.5461728818307168
-4.247653980979306
-3.2434138816908176
-3.667832453970848
-3.7636299878028896
-4.928923838847788
-3.714773289583412
-2.3879178218982458
-6.5095587771478485
1.968375135785277
3.1025098350756886
1.2113541015693012
-0.8411934958060611
-4.5072517133773555
-2.2984015939188014
-3.1986536072875094
-1.4006012440972277
-1.4475030515230503
-4.2179885877255705
-3.7363939604915504
-6.549671186626364
-6.002369856266316
-0.3439669415649921
-1.3679300802386785
0.3185342335386712
-2.08706450070711
-1.5854273599180586
1.3306831617160646
-0.9576329672530683
-5.088947701406372
-3.707794758403501
-1.210723455543548
-0.8197595867786821
-1.239185415065044
-4.701334914755872
-3.72168190933856
1.5906783647211171
-3.2684861490519
-2.2725135115904047
-0.5410063066543801
-4.289275414822259
-4.861099695003693
3.6669298053490316
-1.621075576879193
0.8553430736636018
-5.416383872913873
-1.5781795717381377
-1.5743138357239337
-5.481798725575705
-4.132285335833991
-1.4961401889150105
-0.2771479651205783
-3.2370234730305687
-4.716914906434233
-6.572444195269377
-2.533921261232351
-0.4580326880145023
-1.2430699734167765
-1.6189578606454031
-1.7659033407305442
-4.31034100972855
-1.0736833849499945
-1.4184519247542207
-3.199809027396833
1.1162638800220928
-5.458729194333659
-3.3169403115825493
0.34755957093420287
-1.1077362965372046
-1.4280121345366676
-3.3004080184158604
-6.13700777124854
-0.6385855853716781
-1.3749394922073686
-3.748527761875665
-3.549156693591647
-1.1111386617899703
-5.1631711804365805
-3.8037266353893204
-0.6543167961387769
-1.8055193330949835
-1.1907598147865928
1.6548729808962641
1.1426536141430808
-1.702477704251205
-4.163159557555731
-0.8604143116528932
0.10584015797919837
-0.2642724475037231
0.02803408526487668
-2.4179184492444072
-1.650117294034657
-1.658481232000216
-2.116422844555868
-5.748815770067932
-6.861465295781566
-0.8160056022715647
0.3209859077367651
-2.205709172261221
-0.7340761477366656
-0.9584114615869845
-0.6543167961387769
-0.4607325574858564
-2.3601136947050176
-1.8055193330949835
-0.24554435085633505
-0.6832289071898187
-1.43321392489629
-1.0783593850639532
-0.5133345574959326
-3.0699148283657354
-1.7936842653769691
-1.6043194508281517
-2.2940908791530967
0.599456312928536
0.13607722881799925
-1.3961696668846169
-1.946359617280123
-1.7349559941433548
0.07238558994624511
-3.347173039400684
-2.8151720340479645
-3.565144332837078
-0.0838897685913061
-3.062427561945798
-2.5252457561381996
-3.2147448909627245
-4.910583261076219
-0.4385234097682906
-4.063330991318704
-1.8474572374909242
-2.5739647037070927
-3.296642608753064
0.8738756968515188
-2.564211485063025
3.5502496261702903
-1.4294786763235645
-3.316996716569895
-5.03962715440888
-3.1768684629149946
-4.308287045781161
-5.865605320890839
1.2040488043042885
-1.8397733866513257
-0.9345499649647243
-5.206473047398456
-1.6774048033265438
-0.11034576749591486
-6.847007654714048
0.9789752483635292
-1.8524747102464596
-3.9961335163536944
-6.146515426065479
-1.1828491735898403
-2.0438366196676765
-3.6325691017027038
-2.0263751023260546
-4.348465939749963
-1.9307508534898978
-7.817884729693579
-9.383707429577525
-1.7869236255477352
-1.9815296602009789
-3.4600761445420245
-0.43710871602986123
0.2733151514078312
-3.858840158660394
-5.238213477749989
-1.26324400611162
-1.002803853988295
-0.5107160044554531
-5.123892552742193
-1.0416780611316572
-1.7562603363800424
-5.57804954811983
-5.430303023360434
-7.118179207654294
-2.5257370865624647
-2.8158947840972557
1.2376892922751712
-3.422251182733431
0.3443538709737374
-1.3941179437770301
0.4738679086105019
-4.496271515798382
-1.2112460932967397
1.5839332598518732
1.4426532624202082
0.254117485122584
-0.42106082142989787
-0.28138065447529154
-2.228972551257278
-2.216231516469258
-4.538890749520304
-1.594168798392068
-3.3062988478069073
-1.6249730532181574
1.331889764896601
2.6180317513473237
-0.4183335676994853
-2.3015346466987894
-0.28933536463954956
-1.511870352025268
-2.3458875941377473
1.6803097916445855
-6.195775378975051
4.736476993172566
5.471970696660014
-1.9710347397847798
-1.292856817258546
-3.717421461135176
-6.760133321634358
-5.192793332682548
-3.297897553245514
-1.5385252949040464
1.3614804558922144
-3.315060575647551
-6.782043348142073
-2.4885484381986287
-3.1689180564010617
-4.076419478632989
-1.1883054188168662
-2.962274482860084
-0.05216028533010422
-0.2117565181571752
-3.1499745188419004
-2.4267356547769716
-1.1731270989575013
-1.9036808229611473
-6.2955596870530215
-2.1127413534944095
-0.6395052619240253
0.9765597423968205
0.34340122034631565
-1.1126170133146116
-2.892116645573012
-1.5469821063212204
1.9665854565459613
-1.0433778574133614
-3.108908362378511
-3.3784260274547218
-3.338545359544379
-3.5884738252362096
-2.2029070575141816
-1.793399166416848
-6.105091375770696
-3.0436904903503765
-3.8828804316680072
-1.2755546979952388
-0.8689683837428265
1.1049599010401991
-2.998352020214591
2.4540894305329393
-1.991392867735014
-0.9163949946602881
-0.18630745119068337
0.1250584388524862
0.12194488348852305
-4.483645087641283
-3.230309572360344
-2.650241717201648
-3.051414587667198
-2.3273431512423577
-4.858076262977974
-2.366034526088307
0.18759059957162025
-6.254823145413724
-7.688748970632014
-4.258583447454707
-2.6102729642328883
-2.0493383755014793
-3.4550904601257884
-0.8012521327610455
-1.4428146192363418
-0.8535167028773181
-3.24490594325378
-8.073781418051292
-1.8435027369522212
-4.992126873249403
-0.38981875594457505
-2.4169193071053514
-2.957537546789973
-6.3536815855323985
-2.455913107409952
-1.6611204748389505
-2.082953754433462
1.0219305883719596
-3.256598326801566
-5.771214201507013
-0.8506446184103501
-5.980193635459718
-2.5139179538299468
-0.7065268532823705
-2.0114857354967826
-2.931924046868474
-1.8938328300589595
0.3485622276071112
-3.74505107444696
2.7252337537823546
1.1900772204216081
-1.0021276674152833
-2.004544664376025
-3.543862923545383
-5.13472426375504
-2.6004597486632224
-4.6312466316898
-2.7614806227659767
-3.1743012819447634
-2.961856638707256
-3.427164003527065
-4.457336226279918
-2.866627137502043
1.0288436806889443
0.8215704102659565
-0.263084815774155
-0.9138706330268841
-1.4762518813930399
-1.594168798392068
-3.3062988478069073
-1.6249730532181574
0.32867195758246803
1.7389060767274498
1.325334691171819
-2.1053431328118584
-8.143503976714712
-5.268637513070651
-0.7740856476442065
-4.949119927548134
2.54950657393786
-3.8978553169634886
-2.378250747659727
-3.884871183524472
2.342143612081113
-0.8953820353633153
-0.4389871732263815
-2.4683379456505086
-0.12820513209190143
0.5918993677454936
-1.4221672640629572
0.9361118350293072
0.7152506273611933
-0.4326809584603565
2.5500053245315484
0.6988670698175108
-1.1783990418789396
-4.153435043174741
-0.45452276647814
-5.966673579148647
-2.5790724028471077
-0.6984183016753337
-3.12759901403901
-1.0615119597914142
0.06918023686988224
-1.12338241364962
-1.3901104568906764
-6.273883276833441
-2.249714907369686
-1.43691385153898
-1.7024985576369598
-7.890757984016099
-1.5250054577411991
-2.2625675308804714
-2.583764815278014
-1.6146227171635936
-4.442992297202793
-5.026444210386928
-5.549717101316559
-2.787825304458553
-0.8791915733162582
-2.931998017658271
-3.014736873804475
-6.612886372673811
-7.031631091775253
-1.1263406870544697
-3.053433423206836
-3.079878137584049
-3.551615209862816
1.8259654751651508
-0.8117105706327181
-2.5702836019628963
-3.028989049174891
-1.4526166865654573
-3.855439353293564
-4.7979539997281355
0.3277412509898067
-2.9754810650326204
-0.9752902027288023
-2.811080800102926
-2.153172629586559
-2.5569162176919225
-1.4910254927623021
-0.8810167983802641
-3.035116340776876
-3.3616902870900733
-1.4910254927623021
-1.3155120650304553
-2.379110838872476
1.6947140015640407
-5.2181848310298
-2.5809077569598435
-2.183255380696724
-3.4181608963702503
-1.6857476174854624
-2.146545029546231
-2.767461618287353
-0.6871439990326494
-0.054999789865988066
-1.5168328373874418
1.807499294334411
0.6079989708678375
-1.9891099709913034
-3.916407424326611
1.480222710748427
-1.3422487318021437
-3.172288756559348
-1.9676526070726996
-1.6203317183973045
0.051875173203835764
-0.9410526565677563
0.09313485380014179
-2.040537937844323
3.553860539816632
-0.7501194725250231
-3.67054339256894
-5.357883164306655
0.6778540746977767
-0.7416976105216005
-0.07309412668062176
-0.5064533994846946
-0.47105442151818383
-0.2913286846316985
-2.0684933970264816
0.9898658611174976
-1.0783593850639532
-0.5133345574959326
-3.0699148283657354
-1.6043194508281517
-2.2940908791530967
0.599456312928536
0.13607722881799925
-0.7636197464995398
-0.8612064500253964
-0.9018836896075114
-0.8058582975215262
0.07238558994624511
-0.6832289071898187
-1.43321392489629
-1.7936842653769691
-1.3961696668846169
-1.6593597484778553
-1.4413724499790106
-1.946359617280123
-1.7349559941433548
-1.316643604033503
-2.6428316445287696
-1.1358810858298953
-2.8984276851282558
-2.8151720340479645
-3.347173039400684
-2.220475571124039
-2.634083216094469
-0.15708948624561153
1.2280710931219347
-4.299082989327748
-2.373168216224302
1.4473842615895165
-0.7943898738551473
-2.587038762167977
-3.070512591146435
-4.8124833503987325
-2.5705705543414097
-2.6510982343634315
-2.824048859098037
-1.446643924272236
-2.286304556395785
-1.605092334301392
-6.091136265867578
-2.8530519025079877
1.0276487634093006
1.0594409407216576
-1.2558996167561356
-4.538890749520304
-4.217235838789359
-9.241435423120441
-2.1553895776541374
-3.1374174758210382
-2.5137877825239023
1.0011681314437935
-1.4921656532358198
-2.0083491897680235
-1.1247905261858926
-0.2690503690151539
3.2067874130557485
-0.02421985698989959
-3.8063469779434853
0.032606270222063534
-4.779184774106861
-1.3188193033619489
-4.93115704027807
-1.8673031108840352
0.8805508262561403
-2.8710403248529404
-1.3375686080256741
-1.9868961254601485
-2.7321048025364507
-4.3508886241575855
-0.9518066772806395
-5.623068426166161
-5.123892552742193
-1.0416780611316572
-1.7562603363800424
-5.57804954811983
-1.9698521404975344
-2.5611918078093177
1.0611575061045748
1.3832523966117263
-0.8394851253722377
-3.5665038164405942
-1.9339235640432526
-3.1442767362375688
-0.04134371472916536
-7.318528119368008
-1.6405864085800825
-4.64604398951883
-2.462594045313308
-0.1513143063763717
1.6724703099033644
-2.2301483574458683
-3.7042345371225753
-4.980259959833882
-3.3208236558869775
-2.997460865780141
-3.3213918498717128
-4.908098408852764
-6.199021510246592
-5.267091443803409
-5.644376731629922
-1.1269091433340666
1.4473842615895165
-0.7943898738551473
-2.587038762167977
-3.070512591146435
-4.985174703920811
-5.579143700012942
1.876575083460038
-1.4139409919538481
-1.8856931619332424
4.158138965509267
-2.3709034651462733
-5.292606436432616
1.3272297810824027
-4.394856907228657
-4.3023053531129065
-3.042643576410749
-1.3419508865507321
-1.6294018163708792
-2.2943302141466924
-0.8968763276090258
-3.1634801255864464
-4.448855913679405
-2.0605105621622752
0.42444451028105074
-3.588468611443442
-3.8021400754597026
2.9996922529483183
-0.26585521041997623
0.0601185776854127
-2.789475880331247
-1.1294023041830636
0.43160268872236296
-0.9936869911675623
-1.7606722219704456
-0.5556230572915377
-2.34904403983947
0.7709029510188563
1.8808025845849623
-3.895292671677817
1.9239933739497428
-1.1070825030907159
-3.6570381426965337
-0.6516063055411545
-0.44331105247652997
-3.168252323272949
-4.222627575893506
-1.7483303692994199
-2.1156505520028523
-5.665740514980496
-1.9821559327807858
-3.3316532713461364
-2.24537665195492
-3.194206800361228
-0.7336441581996158
-4.332221016438665
-2.1624252551513328
0.32416740553370316
-1.2046080082944897
-1.904108431550708
-1.8576350449273107
-2.3957141477440267
-0.7685961262942842
-3.345980757891947
-6.167816673958268
-1.6547582023516425
-2.465748949854557
0.5792407147551049
-8.194663906632622
-2.458313545327401
-0.7305309252646901
-2.3944996618143475
0.03849529802541133
-2.7813876604519736
-2.2379452716400143
-1.9700763393549694
-3.712600015839422
-2.884166096902308
-2.1056889684111404
-1.4423765482351192
-1.4316213594672476
-0.01533937208122858
-1.9411970575257804
-2.763464861176336
-3.0597910521705827
-1.4734677773651101
-1.2874439584061244
-1.452241901389402
-4.627064567974978
-5.1859164896058045
1.507777391141269
-3.0641325614779746
-5.2296038716062885
-4.307439290375132
-2.8786769755751154
-0.2514828097480662
-3.2494356511766043
-7.479382481024376
1.1998084772651816
-2.6889714185817932
-3.23256670935713
-2.8187439926018474
0.33903746853955186
-2.771271710353128
-0.05952700394949394
-3.631085966919907
-5.154440657085241
-5.072077902886486
-2.9287515864086884
-7.307846497000317
-5.791585871752758
-5.229992104578286
-6.666387418222121
-8.144437647976261
-8.44849693653992
-4.886007704099584
-2.213325105474631
-2.152164718763092
-4.574644251545417
-0.9856123030527364
-3.8837680838909936
-1.7026104143489589
-1.5633579501164587
-3.391628656115127
0.3056129042863631
-0.12710749571814248
-4.076210464786318
-0.2642688830368599
-0.8377163419482433
-0.4738271445525618
-0.2514828097480662
-3.2494356511766043
-7.479382481024376
1.1998084772651816
0.20986990145672052
-3.2942195015017735
-4.271522956177031
-1.8614843525708087
-1.7248722215180845
-1.3214790377423158
-4.302807297084929
-1.5173859283115299
-4.548372480338354
-3.6795556110865566
-3.249797624623455
-3.61544508286139
-3.7474039874846405
-0.016118162029670688
-2.703914151490557
-0.3969246163417814
1.4473842615895165
-0.7943898738551473
-2.587038762167977
-3.070512591146435
0.23344396732585834
-0.5030589086268558
-2.2179897448167147
-4.857583379387639
-0.3070472233813396
-3.605117864323059
-1.1960397385838208
-1.6467602027655124
0.62876537066904
-3.998346274503464
-2.8770733923484286
0.23249895734658457
-2.331823231207323
-1.1889235863776524
-0.41389216469113915
1.1124736280261807
-2.3615398429335634
-3.001217814611486
-6.91037582632276
-0.7509007912104331
-3.4973591788145146
-4.538890749520304
1.832712665322793
-1.3248220435373361
-3.2864086795758025
-4.950758995265365
-3.146352191295268
0.4936802638469055
-2.2505955303843264
-5.144674219943024
-5.473347677700889
-0.24623508736730254
4.970364314629197
-0.7571771058322178
2.025472945788443
0.2761669246930888
-2.46656029625757
-4.402244761613382
-4.259023540520996
-1.349542607491751
-1.8507413725753312
1.9416158163559338
-0.5712233711832168
-5.195249019039158
-2.9378369721979105
-0.7964857356247497
-1.6699202155502413
-0.364857722897209
-0.11022883747226783
-0.07459681316953963
-1.0664640332166362
-2.164229525578035
-1.1128978554611908
0.18114933021560975
-3.159296991408564
-2.4169193071053514
-6.3536815855323985
-0.7305139004458149
-0.8014802380847141
-2.768618754776947
-4.649545655022781
0.05097007871293427
-3.5512120202895474
-4.172036373210136
-3.428901262667572
-0.2083050356168265
-4.50628884226747
-5.01181218679251
-4.538890749520304
-4.385556251828771
-0.2862542504164217
-0.4080001935012826
-2.79088343473118
-3.0127193366519216
-4.907330113309666
-1.938473734644491
-2.1671028726330968
-0.6831683334536682
-3.1939779267805255
-4.426393684264295
0.11256176018457847
-2.829959173597408
-3.335488145161119
-3.0626886197553853
-1.2324500702745593
-2.9153436352241746
-1.791232655833408
0.014574898390943274
-2.3600909461002826
-2.6148064089590437
-3.831858584277523
-0.10941279012774886
-2.618309988955129
-3.2279297561111715
-0.0342066276137069
-2.995637508500236
-1.905451715514454
-2.4751756187212473
-2.289580109562966
-2.319492616096044
-3.1454181300314445
-2.147391726987602
-0.13653894736328465
-2.2482053568485916
-1.903836168481246
-1.2772798384117905
-1.4747906715260024
-1.4747906715260024
-2.201240436453168
0.23764307505074908
0.01980555997674998
-4.296610429742839
-0.8335188053831658
-4.277980014837469
-0.02014576031159107
-1.910628922283476
-3.379244768623126
-3.916095455273612
-2.835132798855083
-3.602944431397113
-2.9928864439708813
-5.836095023450713
-0.3780690777930091
-3.227217527677778
-3.9568508968059155
-2.524919037568544
-4.714705964790257
-10.776800189984536
-1.7392407064123983
1.1112534363016937
-3.0860425351805065
-4.975666666534931
-1.640072976472848
-1.3354676120450413
-3.3451532752875566
-1.7048032717527075
-2.1456912232487517
-1.980405477333675
0.2579949171090998
1.425690608770475
0.10806088425299543
-1.217003332387898
-1.8489420721190803
-1.4747906715260024
-1.4747906715260024
-2.0475128661263025
-3.362385557983873
-0.9882641756822363
-2.191683242384346
-2.4530855764729274
-2.181727339982165
-1.6617957543919284
-3.991194047507568
0.04114215067441113
-0.9720296332731013
-1.905621621476877
-2.783223978770063
-1.3523819341051329
-2.4812151115543015
-2.1459140613477303
-3.362385557983873
-2.272662095321331
-3.431147545795723
-5.618020879011492
-6.454054302100227
-1.9319225573207777
-2.952149238231492
-2.191683242384346
-7.272494806952682
-5.766422388611659
0.6775345989312227
-0.28403260709611505
0.9260353731088931
1.015101818623493
-4.160624693858537
1.3278427997968394
-0.4516206061832109
-2.140330531587815
-3.1005593908975713
0.1480072717702432
-3.888272894315922
-1.4929839537559138
-0.8313209698905099
-1.1479527217427576
-7.522315939974025
-3.5290827357091747
-8.375392250108385
0.2911029660049054
-2.776237845047279
-6.856328674203146
-3.618716221564314
-5.860657891731055
3.0856435417449215
-2.93241861930305
3.0856435417449215
-2.1342375213457387
-0.4945330317554453
1.3852925837201686
-3.4191251808067014
-1.7688972535183305
-2.5585789936157814
-3.721602178610138
-1.2251388302588444
-0.9529285031516692
-2.8116075093513437
-3.265815030122451
-2.2056211793576925
1.6763214521513286
-4.112747433238355
-7.615741118780132
-5.843221483236717
0.08709157895733442
-0.1940716175778298
-3.216671185846866
-4.7421237864038375
2.116364637007176
0.461762693894317
-1.7450425674399372
-2.91709368449102
-2.830848194659538
-0.16802794402116178
-0.7977946210446633
-5.114889450959866
-1.8974793317588878
-1.7629281301472108
-1.7382338192580133
-3.737291004155273
-3.823831346191029
-3.8099796600874867
-2.168597554776271
-1.443077465349084
-5.7448314064822
-5.942557786636726
-4.277850157552532
-5.189488152447417
-4.51903545779035
-2.2395114999034393
1.176640801903013
-3.393510111108789
-1.295190632212876
-0.7930606021991283
-1.146798791848618
-0.6413597445944196
-0.508911115583226
-2.426713562558464
-3.3404214765402767
-1.8294551794221523
-0.9767869806678369
-2.764988575939117
-4.707505034029566
-1.4059558903574263
4.214199004974578
-3.2486024053954985
-4.690717232529656
-2.8614076748077775
1.037273122106157
0.8395765241279637
-1.0757295476600888
1.809809296026621
-0.9997864401187374
-6.791480218099937
-1.233956965125842
-2.1454019584425508
-9.101250455985804
-1.4982866157668981
0.23363531270626509
-1.5939031875898062
-1.6453648239204968
-2.7420607049386323
-3.1138672540795245
-3.724970687382443
-5.990293088803499
-1.5012064632661872
-3.2377907305408615
-1.1118009017381836
2.486611074261354
-5.483463024408739
-4.697741558910144
-3.3856859627340814
-0.6589561550650562
-2.1544121111020287
0.35370456311937065
-3.6238306721150217
-4.696166859081154
-2.809486388503348
-2.107395944843746
-4.561033946038576
-2.8173725129501874
1.9444574751656714
-2.4169193071053514
-3.0414146381400933
-6.3536815855323985
-0.37532012053928193
-6.032036647352719
-3.2492546445969617
-1.510694300459922
-0.7885515975665015
-2.780220038489295
3.075474168674215
1.3889502897327242
-2.0043638659732848
2.977667224443931
-0.5724194368587847
1.5337065124934177
-4.169285527368378
-3.0880699821766515
-1.5848868025572376
-0.8411115169990251
-4.659616797113712
-6.836784037052538
-4.874064375980228
-1.290656424949095
0.6442069198851179
-2.4169193071053514
-2.7021830087127205
-2.957537546789973
-6.3536815855323985
-5.326562326148744
-5.2461154753853
-1.9014836133566806
-0.800018072504151
-8.74594087193152
-3.58604313197209
-1.3279939250545554
-2.9898411820655038
-0.8938153227649388
-2.4646008552053256
0.2978595552516011
-1.7465821789608797
-2.6471478598528235
-1.0941771427308014
-5.335460308881739
-4.7076346359266665
-2.176962261142061
-1.7422544963101287
0.08905998803627231
-0.5908446066471634
-4.024413478610239
-1.003454051464888
-3.651416530714601
1.1148825782752503
0.16671711125150473
-1.472335891836466
-7.403595268953632
-0.6153242546282044
-5.239872334790089
-3.0918542191047282
-1.7089905463480024
-3.009006626331803
-2.3660926720639277
-3.0833513284528844
-5.2985758590964505
-3.948928735645335
-2.8071767562071837
-7.877534872880129
-1.668734145013581
-3.806735308874778
-0.6856308359639322
-2.800140936616025
-2.0810965252694937
-7.022832130013427
-5.2240193587895085
-3.7417614937568335
-0.0027270429065897788
-3.685353750030514
-2.993285251840451
-2.1494875922837013
-1.7339261957712133
-1.9617516189562503
-3.6086568119712257
-4.0303503994603975
-5.554919135362933
-2.192534935262631
-1.708070257252466
-2.192209255886516
-2.339238067516335
-3.4722463240274566
-2.7359478182402337
-1.5516772650482868
-1.4221836212837733
-3.0414146381400933
-2.7021830087127205
-2.957537546789973
-6.3536815855323985
-1.473759659076233
-2.325252201141785
-4.468444040173028
-3.165380675449447
-3.184149059709591
-0.9334286428993918
-1.5990431997217918
-1.573453752843681
-1.539739703650963
-3.6455593493193144
-0.6868391063302518
-3.2266733665836558
3.0461840113784437
0.5925087203386535
-1.8726477242558668
-0.5266954266494495
1.2425873500120406
-4.418445846749341
-3.5523890946389254
-6.007866353119072
-3.9982499642213347
-1.4357081957300002
-3.022890303515107
-4.286016686663007
-2.997945862949746
-1.280194916677673
-3.0582395930015314
-4.0938668320833775
-3.865473485217106
-2.363968983078405
-4.246332804092716
-4.388058621547423
-0.19746136875231796
-3.9845060811414084
-2.9636782755345985
-2.9660407593164786
-3.731067900919097
-2.3113862948067574
0.28997941379747366
-5.278708754250444
-5.153073657625409
-0.24719276523588735
-4.210878425915419
-7.779978704792942
4.720221787905652
-2.2344532657235474
1.0643242911241508
0.04090078705138114
-3.773693899212902
-4.6119305854169506
-6.0769620740503125
-0.2594883052537979
2.493285515026143
-1.3967832102018067
1.1174572080510228
-1.6089296091866694
-2.345754868362138
-2.541820416604047
-1.299832274452957
-2.1998792774967733
-1.2263289779912725
-2.644456882068944
-3.7580179261400675
-0.7543672419518952
-2.728048781359806
-3.3045205256862022
-2.5421401268891723
-6.595653900614594
-2.6600080058572844
-1.6509686824488417
0.17772043273047497
-0.43999085802275983
-1.8551249730625385
-2.2532676571231827
-2.6705790030729966
-3.948311288228054
-0.6672629986988088
-3.8156460477483876
-2.9140702459324737
-0.8178852546661106
2.1657510846639876
-2.8694465406330893
-6.879068242147805
-2.975073286284094
-5.194274290356156
-0.8765444634286996
-2.106032513931081
-2.434292331585128
-3.948315314021674
-0.28538768151241023
-0.8249223154385413
0.12307870694775033
-1.4813787201848228
-3.56966819317284
-0.15440804894662968
-1.7257823418158191
-4.090791878259177
-0.19470111613953472
-1.0666017532825043
-2.366704220727962
2.2454192789599325
-3.0637388608498557
-5.794976405871147
-0.2308734939828626
-2.613296823464683
-6.177913032488924
1.891658035795525
-1.0826391200603251
-1.9919354858907181
-6.803565937282596
0.023165363557046816
-7.119110121959152
-3.3467143825005863
-0.2953647665876715
-4.483881978620951
-1.124880025857402
-2.66150001420411
-4.018006626876209
-1.8489176062408237
-0.2027248346292598
1.3416202824790042
-1.8104579309326267
-2.0044949070729463
0.4224917222139624
-0.5260519711149616
-0.3551844677656239
-1.9717625182522598
-3.7059516178376337
0.5908565859362584
-2.631672662765274
-1.7440644934604275
-3.521699170855529
-3.0885536404199336
-2.336923336351933
-2.5698791646747683
-0.7825489747348184
-4.13009932655056
-1.271216037380445
-2.871877721645698
-1.8688075148255114
0.15946757384809573
-4.432075578978223
-1.945041482362568
-0.5653571605444156
-4.029025617492623
1.6425872402448112
-1.5577789744347283
-3.042262049150108
-3.5688600421178847
-1.3239811235756351
-0.5017750138444764
1.7225579842580945
-4.181551214840574
-3.4714637555484527
-1.1303846051046702
-4.6859225737417205
-3.593726981512849
0.8296146851566701
2.838015456142292
-0.5042285434223216
-3.137915965802026
-0.8439170406107481
-3.2404067774581646
0.06122249809475289
-1.027954378756937
-3.9973463411907613
0.9533230953262646
-2.4335346086680225
-6.043784104277889
-5.88717864149882
-0.40393436003155503
-1.6332683071704144
-1.8143251417972508
-1.938077921544694
-1.69972322206256
-4.485478410036047
-3.1379141998474744
-3.3190259633291186
-4.156315226630723
-1.813336310789417
-5.078461932066446
2.87199732491524
4.213809980040944
-1.5016260615196915
-0.0026944766081322233
-4.311647426269861
-5.853928276187253
1.1205242577137629
-3.1539440495927877
-1.4521575669570612
-3.0130930284053665
-3.6124558869460066
-2.9458688112267937
-6.381109320234188
-2.6007629183470082
-0.8135430104833086
-6.174262003036575
-5.918013388270466
-2.023597089887929
-2.7970276781709327
-3.314958752836431
-2.225800075771305
-3.1726935261076497
-0.19339129504831903
-5.105055973258699
-0.28320834345427254
2.5550652317407185
-2.2879067787307594
-1.473126112406081
-1.796767133526571
-2.5996664964217406
3.6763137322547945
-1.8696874393202991
0.11304982595343667
1.1032867033465588
-3.5505646185865
-2.9422702375490837
5.2508173025431075
-1.2504546035834103
-1.7370666326920303
-4.303151015915284
-0.48985561467465705
-0.8803871186857138
1.7941062070729656
-1.5805282227162833
2.702379867980519
5.538961354428615
-1.6554344365849665
-1.5617857753536954
3.11658095074613
-7.413777474628358
-1.6599972894401838
-6.441545583056594
0.2026864964019238
-3.2187301056973427
-3.3242578471391075
-2.6648152546564203
0.2508068188903766
-0.37934802703587855
-0.4515343373839613
-0.5461833594228398
0.9290159178242098
-1.193304880098738
-5.115547750981253
-3.886846083208542
-3.7669847808655152
-5.805988387094423
-5.459194821634308
-2.965657890671075
-3.295478548610233
-5.320952449202904
-1.741246471736663
-0.9518448886629395
-1.9234768850105037
-2.4676627748672333
-3.6916388742305513
-1.522019646918226
-4.360979865626279
0.1446485430742483
-0.9618419467643962
-1.9631453016629805
-3.470189405970247
-1.868101453392143
-2.216154111488768
-2.37244883865343
-0.0020093985646170306
-2.040170948594704
-4.0867876326675106
0.5988097503125256
0.9003748992681242
-1.3975565931191238
-4.306983437594058
-2.425062635732267
0.2866253990532577
-6.118101105158594
0.03821154577422553
-4.391789922996195
-3.6847012584832006
-0.9380540319827838
-1.3531682662929518
-4.1684780797794705
-1.0233927508019431
2.136967728822921
2.4486776033093114
-2.1211698928297174
-2.0882415828895176
0.04108571156642839
-2.3617459377301535
-2.627339585826683
-7.646474753011802
-0.043112554376908516
-2.2159416311647724
-2.4935006332432943
-8.336993066928457
0.7227414362877073
-3.5754030317423906
-7.050858807697854
-5.005421460134513
-5.457845010170828
-5.439531205798943
0.8505926502617928
-3.388690786090132
-4.451221032379968
-6.317921468550378
-0.5398293572000741
-1.731374404695943
-2.8601880375192192
1.1095654459105846
-2.1516423621740945
3.1843950567572286
2.2112059218765254
1.2428229478654407
2.770521741486508
1.1380059837598706
0.7234569801181887
1.1590280597004583
1.0089843768975963
-2.1167094381900236
-4.071506668834017
0.2634522221185393
-3.4991534991606406
-1.846070320023784
-0.5848747615653791
-1.3606953419036547
-0.40538965451247594
-3.3143819855054755
-0.5680119056536844
-2.662029586025803
-1.3686155419448327
-0.9052122438957928
-1.3701586208596583
-1.411392223426269
1.218056341210489
-6.046143179501264
-2.166852707690636
-2.4920778873596596
-0.29556146913021686
0.4130622856889956
-0.7762440299680315
-2.8627585876730923
-5.578008434632987
-4.427412883886114
-4.8609954388026875
-4.115844806742371
-0.43639265873127714
1.2097134233558582
-0.6533379467684528
-1.2667266568460895
0.3587048570462615
-3.4646382266632907
0.5220422733778236
-0.6348483811878487
2.021601014019583
-5.258202976549909
-5.470031811110955
-4.868723992208812
-1.8968100728507982
-2.4843558423439465
-1.7909253900779036
-1.8164806516730636
-1.313647431418498
-3.7541518796653244
-8.468878376111254
0.8651059332236737
0.22076914280074866
-6.8710529910511315
-7.481417277037141
-1.2257590323536758
-2.126723727945742
-2.3173675648052705
-1.4364820385191035
2.261401459388414
-1.7016095660581332
-2.2037810292077675
-1.773112227642361
-2.3081423956834475
-4.18206568332147
0.1621714534047754
2.6686233714626058
-2.7184128940110335
-1.9465826949804503
-1.3706733413180396
-0.5634434702683901
-1.2930892087248465
-3.744646142782665
-0.9231639872984844
-2.725400127772018
-2.5652346068272163
-2.5588219498946674
-1.8687921231792894
-3.8960515347992892
-2.72153222306435
0.29341228416322435
-3.3198107027254786
-2.21495208639144
-0.26854748323855004
-0.7381992647402467
-5.7212607361345436
-7.360429557149553
1.0490930017449283
-3.780401593246935
-3.9923174212542736
-3.8319807484589665
-2.0565742590132685
-4.04265423339853
-7.7871348749922324
-1.1531112342336902
-9.038942668316295
-1.8960401335209731
-5.921970492450973
-4.113808851617411
-4.682636038781807
-6.241925870048063
-6.319028659663933
-4.608482597685589
-2.025590599970692
1.193646441067572
0.31046155564412314
0.5176290688189836
-0.6253032304759826
-3.900923224740397
1.5897519045720963
1.2635774099985748
3.310865816720569
-5.860562608811778
-3.262884129316146
0.530205873506802
0.6654034098879383
-0.3546491221265212
-1.2508839497138846
-2.127268977490759
-0.16083134153417733
0.5286302751854222
-0.21441799933972164
-2.011361161125118
0.8708039047310248
0.9533930572391168
-0.32987943600867053
-1.0914727073056099
-3.6116638506660506
0.42173487054963726
-1.4147122569187094
-1.7157631127876813
-0.2404675741236901
-2.4547865183127096
2.5934629429053
1.8995816738654199
-2.1292000697076885
0.5860490659052384
-2.8149387740715452
1.5358148567619496
-4.880421227071859
-2.3770308005631104
-5.2122304470379985
-6.501569659233472
-4.957233282697329
-0.6177619767276987
-2.1866699978004305
-4.944562602165234
-0.43754503368219494
-2.48910269786301
-1.1479502825840522
-1.6565167837256711
-1.7143443830384886
-4.158131511888211
-1.3226898973630226
-1.570961083046041
-3.565042362474112
-1.475686660881072
0.6855948014043582
1.286632620362938
3.391993120662984
-3.3711565909494174
-3.0079070048259657
0.15274085139551208
-2.902231701840517
-3.797058057512598
-0.3320192905813285
-5.076437094072336
-2.0488111137148635
-3.377955782201108
2.035330841957018
1.345728796305167
1.1477735434737564
1.9084439247388088
1.1615095412461072
-1.5159227343319137
-2.0094576719312083
-5.860633962244913
-1.5029448030868613
-7.863965501260672
-5.808818007813381
-0.5502301463023224
-4.737479820042128
-5.154164112416241
-2.245122824501479
-0.9612017391137581
-5.4942138796279645
-5.309749605112375
0.1819844548464294
0.7411193627197193
-4.170564348368019
-0.4039193709386311
-3.3612419943742022
-4.407793307898943
-0.23628428242258193
-2.8156772122124716
-2.817380271077778
1.0726802267741138
-0.4779027995874835
0.21044932326320892
2.1408600629008703
-0.3214459663601853
1.5520594014552882
-5.942075187270629
-1.0002318468422882
-5.439434297187551
-2.5431576576553043
-1.5153259790104445
-0.6584732191137115
-3.7526471810811155
-0.9814504453589419
-4.043876578198815
-2.991152688370496
-4.055399205065388
0.9363389749303008
0.8498361667144454
-2.8383932537509398
-0.47483916128197384
2.152236641391168
-2.3433691928799503
-1.483419229836869
1.051776324393401
-6.057346479724754
-3.0773084557934967
-7.823996256221058
-3.667277713853126
-3.6743411645852637
-3.501969609049584
1.0636518315549361
-1.2178926513413277
0.6991795251664558
-0.6988954645455111
-1.9385012252262261
-6.5311518862031654
-3.3587208529492396
-3.8751416666376075
-1.8850753370735835
-2.5055680972236396
-1.808204141125564
-2.206614733780521
0.40621775041229496
-4.493646974671463
-2.3310772049230115
-3.065023962276944
0.4726465668715808
-0.9035773973112309
-2.290320836577912
-5.376069010666305
-0.5495126077974503
-3.018976204377914
-3.0645742991542115
-1.8839620511380981
-3.853958461987161
-1.104619830649018
-2.636000565537784
-6.150698658731233
-2.896376636985483
-2.23803192576375
-1.8546475523208144
-3.601651326725865
-3.978648304247997
-1.143995012168423
-4.342283500766976
0.09338828597571407
1.5770461160793603
-3.028313564218203
-6.051686332931562
-2.8004717262737375
3.4228627696098055
-1.7108031790605098
-5.936702614054637
-1.3717102189617165
-1.189857382766291
-6.334391405915663
-1.5153248725668358
-2.908932863121575
0.6381290142385284
3.8380346931077916
-1.7845082124312144
-4.6844729301042385
-4.159855702136896
0.2500213084477758
1.5342440274418445
0.15764960359000024
-1.4070466207058943
-4.228808972460915
-1.1261477730644807
-3.117824683861736
-3.679265368776082
-5.572743426440988
-4.180537118623665
-1.8918642263131058
0.31106829464224195
-0.6548993120732834
0.24608026914928183
-5.215605860574257
-6.986720288651538
-2.2230027647517607
1.5980461875995096
-1.021758335691229
-3.512218419900404
-2.6084258382867147
0.6338021243826613
2.0986211409364306
-3.9356973283300807
-6.107481058390691
1.915128822787474
-2.0371607068965334
-5.237758700562945
-2.2919508261700177
-1.4795281653150534
1.376888098560167
-4.602020998249271
-3.2902537178402396
-0.42059773243964493
-6.3519395774425496
-2.1929236275321475
-5.869129107982764
-2.3828267585385188
-2.0066722164141444
-1.3575742006874425
1.014664783025825
-4.122260321521663
-3.2134032527550582
-2.3757266119983016
-3.665806777047836
-2.3177132436799752
-1.4932630326515839
-3.9339639158686346
-0.5799662156326657
-2.010452816093577
0.617050207687266
-5.277583319962768
-1.1173591752017862
-0.30779957147703535
-3.025890984176266
-1.3399310649071199
-0.8802258284410507
-6.743572121094883
-6.481028196314926
-0.696497307608077
-2.611185657003159
-7.084238283568307
-8.339979682362571
-9.64961460005795
-8.2176450845711
-4.72949644137496
-0.3746307025528222
1.2210261275376604
-0.03875400084196013
-2.7799956726420914
-3.7468018334002204
-2.141678463599119
-2.7561355305759068
-4.299985940976391
-1.9694657398415998
-2.8503162937117583
-2.0107949925890223
2.999872951976878
-1.344538844873136
-3.6247317559483294
-4.14977717436806
-7.0546364758176034
-1.123419625575917
3.0429129097257435
-0.20651723407469308
3.4390388794654085
6.37651133260547
-2.762907156368116
-3.8264331864853163
-4.92439767371488
-3.3182997903920937
-6.8929609924150625
-3.2658992618314207
-4.063602796348027
-4.781316877373989
-3.0482136963423763
-7.703512594151468
-2.1803191795666583
-1.7658944106099679
-3.940533296793766
-1.5253546812780845
-2.42310875076959
1.7723049002549245
-3.125722255728996
-8.960081732475121
-3.0417809225215993
1.7021776660115158
0.9771364832006658
0.5688517118985946
0.8602549483461864
-1.0397589076818414
-1.3239361257909197
-1.073217153066106
-1.492022542846148
0.2648929242478235
0.4940778003848235
1.5674552311151981
0.0534646074228939
-1.663470006399552
1.3184418241146632
0.20463832422470804
0.5085895166724538
2.277626880118509
-1.1242651323736743
-2.3620504348191647
-0.1554680586140069
1.9553129651660472
3.587110112757635
-1.6623892669832612
-1.825013075814722
-2.48105686913173
-3.1592093905114074
-0.9515187956784498
-4.8951713522153
-5.939420161561561
-2.8969850825697763
-1.7362592316717589
-4.567505681137317
-3.3501418386242348
-3.7866308969475506
-5.532578496976766
-6.839753989067331
3.355529817120098
-7.390504541714569
-2.5514255176077896
-3.1375892526902476
-2.2288398159540312
-3.6612536185007603
-2.2792985272237134
-1.2269457054927604
-5.13085658510473
-0.9459184117742663
-2.788838376299029
-1.7759404985113154
-2.57971275299694
-1.0507884068305118
-2.362537686971041
-2.3316106500731033
-2.9140702459324737
-6.4306123477246135
-1.3551449315532633
0.10311932202312288
-2.715192446470026
-2.2486185607172446
1.2748156779448716
-2.910374765357579
-1.0108197149398985
-5.754593147055723
-4.230308433493793
-5.194889330947092
-3.8598092516016713
-3.747652455657022
-6.452879824797442
-0.944641589480248
-4.761839316525665
-5.956146799382678
-3.4954242335086008
-1.1614180001629009
-2.518922446381173
-2.698985638244066
-1.5828670328903962
-1.8781331983239626
0.3939999592121842
0.6325676579165328
-4.637344183812604
-0.09262195467292156
-1.755102544554251
-2.6458811285196546
0.03592344283643982
-3.162611403159038
-0.3637441950757337
-3.4177364831142842
-3.434982947824116
-6.842981720611181
-1.596931216887909
-0.6056243662019903
-0.06017670477967015
-0.7238457403006083
-4.680266090852676
0.2282161525280178
-3.262218858807922
-1.6803596279817874
-2.770190055161515
-1.3002384366126014
-6.479706479260212
0.27157310151890623
-0.9101950856273353
1.5207857656245123
-1.015680300744797
0.016770771176594767
-0.7327579059664163
-0.528903759327574
-3.232975609646471
-0.02470412545572068
1.0868253269262995
-1.594518635664029
-3.317330813646112
-3.651798182079205
2.3069019604105883
0.20804231692683242
0.1671636979604235
-3.5742572434569166
-0.0763491475184053
-2.19239746677824
0.16845384192272075
-3.207825081131578
-5.191047783080624
-3.969598934078047
-2.590974604914118
-2.6360903225936623
-2.5135411823510845
-3.2898932875881512
-2.8341517914075793
-1.5351866189243204
-0.5936045750563044
-2.5648366737637542
-2.95898239292836
-1.1953393132162955
-1.2625296309645926
0.20335262036211263
-0.22484116771469295
-1.1046312313666145
0.6192206361201822
-2.5787217673312104
-3.2643682598625556
-3.4665487541705
-0.6300077210229136
-0.054576764355133436
-1.2622769375172596
-1.940104413543812
-2.926563319081844
-5.773301832411071
-3.534889386510163
-3.1561803843607628
2.8938775272555985
-1.0833712413578709
-0.9919529358655749
-5.079927012605561
-1.8604423326740813
-7.265022745561373
-5.503647801235345
-3.958195172780306
-6.480952141016277
-2.5517047899364034
1.5321364300247369
0.903674921477231
0.41110791504673777
-2.623192781660223
1.6749223659614478
-1.0945746573216601
0.8323809619015693
-2.2738640160881505
-0.34823534534342976
-1.7905739777748306
-0.8268893775238556
-1.6613627876567185
-2.762287325061823
-1.2722075670312838
-1.7379034863999805
0.5709772470686055
-4.893657244088856
-5.344039839985488
-5.5224881200179805
-1.7456438930616625
-1.062828651813857
-4.301349008296449
-2.8970596289123014
3.1764174192085055
-2.346797929367623
-2.001182549773732
-0.3587555791099432
-1.133027006276561
-0.2866589934330843
-2.786608098952742
-1.1404159284834605
-1.6337303876985316
-3.5449156519259697
0.0647605504878119
2.387664384279332
-4.015336875487177
-5.8020771325164
-2.9262327089160127
-2.431320929119765
-3.7384396855480992
-1.389763101174051
-2.5710242227175413
1.0120278444054958
-3.1429960391620653
-3.35433252510797
1.40771732268543
-4.2230138064110285
-0.7403869094046572
-1.4876874100476944
-1.876909145939129
-1.100390078726524
-1.1588082394852275
-3.04188803512613
-3.3334019428339783
1.336576969222235
-4.120621581942332
-3.5107540805319153
-0.6785122595050975
4.8434072779626645
-1.110043410082919
-1.5085082156896377
-0.7954885823438514
-1.4784196293084146
0.8573867929419245
1.34846885142655
-0.1254039119121302
-2.889122233594673
-6.216180007913739
-1.3544558711955248
1.0238906093282367
-1.4543375636670037
-3.306755440305054
-3.6292022110677387
-3.5171089556547046
0.5713334761243432
-1.6053136302477093
-1.5631813695698653
-4.337744482333397
-2.5703350401206584
0.3822312666235048
-1.498086132341976
-5.549717101316559
-1.652312370513022
-2.376023362290261
-3.204195074793507
-7.553879558456176
-6.384446690631716
-1.6061391316046802
-3.4015499986687083
-1.3238316890405164
-0.895381140334528
-4.316193583492219
-2.0156865308628347
1.2658753772234628
-0.7322532898321825
-2.3010540827114028
-1.2503965196207967
-1.2092617052992114
-1.3241182593527172
-1.5032307635560798
-1.518582727189751
-1.7600658530267572
-1.7465867914510254
-4.442339543801966
-1.506785450837372
-5.808962672466493
-2.6111639085464233
-0.7859832863755845
-3.0488436301343746
-7.277147065832732
-1.4024061206586003
-1.9788054286413765
0.4408805228712615
0.32511063564079296
-2.347267598720329
-2.518629975943261
-4.226276343359136
-3.572243177427301
0.8278123494913562
-1.986855160839825
-0.9733821114946696
-2.414281532080669
-3.305783861335217
-2.404075573860447
1.5437086956065078
-2.1069371191733755
-1.7974149612403925
-3.434552236569316
-1.819469373736978
-2.129313790751154
-3.090919781443994
-2.407370134084858
-5.6347962129116995
-4.44747934242453
-3.219300358669928
-0.25338436848454543
-7.024170570548065
-7.569012176782034
-7.140366004333183
-5.19104569132729
-0.44739242207332097
-2.7535703436752788
-1.1413811747359477
-3.0902606607750682
-7.941472830454814
-8.778482742880128
-1.9091153023584577
-4.30612726972279
-3.7400386640497474
0.18644485544823056
-0.52021626830700185
-1.138642503257822
-0.6254148268560786
0.21138934318332694
-3.2201845585112356
-2.215984699019067
-3.638915360057673
0.18581463388417885
0.7950742540406527
0.3476963483356661
-2.5568880554653375
-1.5924853866370934
-1.56704998626558
-2.293973089169899
-3.9423097423686957
-0.20901410587475777
-0.9656175847652041
-0.06233471155886072
-3.3136008589003105
0.23966340575425651
-4.943952448666625
0.9255663419284125
-0.7715114318420133
-0.02498376113996017
-2.2349204752392136
0.11990614807858498
-3.901833622815423
-1.6650375063390002
-0.5536641646671477
0.33763286512357144
-2.9527985971954234
1.9330165165157795
0.587538219252659
-4.648099085860785
-2.032147950426491
-1.6234389555254352
-3.8407865438962223
-1.909403877657808
-7.012688988032451
-3.276440596322665
-1.7890293003061501
-1.0042320792571355
-2.695216477722123
-2.226965565374583
1.744203514105013
0.7583454692472658
1.05096651179967
-3.995938049942766
0.8221142577969937
-0.8671651907834335
-8.07883558015585
-1.3425859273849219
-0.8670331487332659
-1.7287127809941334
-0.5917655175694406
-3.5012056434319145
-2.0945108853119785
-2.3196111347355552
1.231593755207726
0.22305647764723185
-7.735274426758818
-0.5460874756270956
-1.2381146466145103
-4.206693362850757
-0.6195253545922219
-2.8221501709732846
0.6473595617083885
6.055246600805215
-0.7736425737676321
-3.3184787897751877
-3.5717339838052364
-3.4009230029043547
4.987839375241733
-2.005711709976958
-9.614045683756814
-3.47710598570157
-2.9855451212967
-2.769611023978905
-8.290705095476094
-3.5536090145925816
-1.8950305831317125
-2.604198378939426
-2.525723568898149
-0.6400871767201046
0.151888913307511
-0.5340774685747206
0.22164762582767567
0.39057167893869654
1.1687732998437708
1.4270020076696979
-3.3884762863757953
-2.503966754052654
2.3765087291823668
-2.8495693675756995
-2.3897749263174215
-3.4166704980431786
2.5721875256215863
-6.905134805785463
-8.865363821860715
-6.346528879380331
-2.401381723433527
-6.079852119175431
-0.4295946243416044
-3.820980876537672
-3.6143700880787213
-4.361476025960486
-1.684333343680017
-5.2883632289823375
-6.800120128796331
-4.505524725320962
-3.5604598482296277
-2.815559576429318
-0.38754176580143157
-1.3611217596585974
-1.7268854911585505
-7.203650068612712
-1.6411117953640044
0.05343916525376571
-8.801850410918457
0.4005252989469255
-1.515900526500457
-2.328870486293655
-3.3482835233168697
-3.8066244308160764
0.17446064753377324
-4.724324523762309
-3.085413579721567
-5.971583149291056
-8.458674770293577
-0.04328112080089103
-2.494233301856389
-1.2837600221286698
-2.066248304659651
-1.875462465532592
-0.8164159205799107
-1.8928253737662655
-1.6272914492959583
-0.03400079371677811
-7.451832394103934
-1.5025614749529075
3.6819104001996834
-1.2408152369856729
-0.11637347045164054
-0.9615202012058858
-1.8342606746942653
-3.784957108091005
-0.8210284758905547
0.7527488738104656
2.0240186116771115
2.6171492865535617
-2.328900992839195
-3.6290519870125104
-6.4400149674047364
-9.431912350737491
-4.975306270377186
-2.2033747000186525
-1.4678423421726605
-6.416596286032724
-5.6646237575921985
2.2512374429308575
0.9929844944995437
-3.038796599446752
0.2547302055143898
-0.027404240492012403
-0.40457597700934045
-4.195795224611021
-3.401401785863305
-0.6984767407609023
-2.9163946836825665
-4.669148775073894
1.7188201767903821
-3.2621874069326524
-8.74594087193152
-3.58604313197209
-1.3279939250545554
-2.9898411820655038
-0.8938153227649388
-2.4646008552053256
-1.0453164806255968
4.811342970980343
-2.318294242603678
-1.8065851665225483
-1.8215332382590175
0.016068935608369594
-0.37609948713078273
1.301120796138841
-2.023420193014092
-3.1721915786457915
-3.3735271884776
-0.6634915101622336
-3.261258906406229
-3.476384730190235
-4.494581228397819
-2.30255722231697
-3.1888409721491975
0.6172819986227343
-0.9349034005071961
-6.598000618049389
-3.465964658409341
-2.280285757512887
0.18543105480111177
-3.796553032592327
-2.691780053241938
-4.910183699897377
-3.610105642244719
-5.341771113506632
-2.219666073632043
-2.4250843569699274
-1.988131881399363
-4.766171871631603
-1.8190135529871823
-3.07834692053192
2.153085005520471
-1.8556683825637075
-0.7212637847042769
-3.4044457182498107
-3.905406724305405
-3.684718853562034
-3.0293623959209937
-3.4392527496761143
-3.783273374207567
-1.6815763666175674
-3.5588516144850932
-4.793543861024988
-0.1312856777401776
1.2408557552806665
-2.5312732462711853
-3.555988172803621
-3.519646231775565
-2.329101676369649
-0.07151835855194957
-3.245112756785997
-0.28396334086983255
-3.63068248528133
-2.26950788080242
-3.811989009830909
-3.209004149803474
-2.5128575687226067
-2.759307333128666
-3.7469996322665864
-1.5395770250954515
-1.5034789462288263
-0.5528252417153359
-2.6170365560088675
-3.54956427342365
-4.393700115889867
-0.38327371693263423
-4.208454919399052
-2.370346794526927
-3.613489231886501
-4.90487341762443
1.1188583488132253
-4.153140484648138
-4.153140484648138
-2.598467678896567
-7.085814385053379
-0.20141796409309354
-4.156695570994875
1.6631460948389625
-3.4495751024007735
-3.619350710291316
-2.072470280932176
0.8964456996762241
-1.2511970647357638
-0.2556917539486509
-4.339929093164562
-0.8945414930339999
-3.3416986419571177
-1.5660925369553764
-3.220458881338496
-2.698924027965675
-4.534952517619476
-5.422359725460073
-4.269095477902509
-3.444863560730851
-3.4239070540166354
-1.306759190961506
-4.968834634530149
-0.22904134220564304
-1.0705472183301585
-2.6502173864883645
-1.7426752393901517
-1.735696993654047
1.4952479890828352
-3.207819353196502
-1.3882598179101504
-3.315060575647551
-6.782043348142073
-2.832917626565975
-3.1689180564010617
-4.076419478632989
-1.1883054188168662
-2.962274482860084
-0.05216028533010422
-0.2117565181571752
-3.1499745188419004
0.3075063802785441
-2.4267356547769716
-2.1127413534944095
-0.6395052619240253
0.9765597423968205
0.34340122034631565
-1.1126170133146116
-2.892116645573012
-1.0433778574133614
-3.108908362378511
-3.3784260274547218
-3.338545359544379
-3.5884738252362096
-2.2029070575141816
-1.793399166416848
-6.105091375770696
-3.0436904903503765
-3.8828804316680072
-1.2755546979952388
-5.3451287656622135
-0.37832837055872
2.4540894305329393
-1.991392867735014
-0.9163949946602881
-3.110613419748198
-4.483645087641283
-3.230309572360344
-2.650241717201648
-3.051414587667198
-2.3273431512423577
-4.858076262977974
-2.366034526088307
0.18759059957162025
-6.254823145413724
-4.258583447454707
-2.6102729642328883
-3.4550904601257884
-0.9931287885208437
-1.3999067794823592
-1.4428146192363418
-0.8535167028773181
-3.24490594325378
-5.9510007523797865
-6.9891772766259095
-8.153178385196687
-3.7166282043128067
-0.3896709118772322
0.09137327470421389
-3.6235037693261067
-1.48088047469584
-2.396535743115284
-2.873273540536726
-3.6990312488422443
-1.8065900890545519
-3.6895338152191743
-1.9670634224785795
-1.5777880373713695
-0.8642808051478075
-2.6187726772361963
-8.640242529410019
0.896560833094139
0.9563151711778818
-0.44051943461153265
2.234345513087342
-2.906565093588308
-1.1425619440173973
-2.533548367991487
-0.5752867090734112
-1.6426875865776744
-1.858902289527544
-3.0146729846290037
-1.2556950276407817
-2.1298787146745144
-2.824536165091487
-4.4509147019080295
-5.583769477193355
-2.6369909229270125
-2.1278919699747383
-4.691273365556801
-5.279912093783388
-5.851098084821162
-1.306162402573755
-3.5349330457502104
-1.806466845621869
-3.741233761487013
-4.366452561937358
-2.7990933628628065
-4.4980739525772755
-5.369734622860076
-1.4134819003120216
-1.9246772615569316
-3.994442836764633
-3.048312196367677
-0.9562524148908894
-0.8543885760553972
-1.4592281456478209
-1.0049216636942058
-1.5863789902955983
-5.926592000115205
1.8890224609237531
-7.1716264340449
-5.728523541319564
-1.0522560745431266
-2.0956863480296604
-2.3450205951524894
-2.9629607256177315
-1.274857905933036
-3.613169239851755
-0.537117323503438
-1.167889912566784
1.0479151708070606
2.6677239105200155
0.743692024646986
-1.5235343470050462
-0.7287500116915818
-0.9227545290676624
-2.877873406349622
-2.637849306369985
-5.983482854723764
-5.213318032722683
-3.67450037190678
-3.483371057860444
-0.9347105455276139
-4.4445019720018815
-3.5796493180886397
-0.8480548755513666
-1.3261128950589096
-3.868153530775002
-0.9912023306123591
0.7305506452591349
-5.398104234153894
-3.273911235628353
-1.9197433730955322
-4.680343621550156
-1.9439067575300777
-3.1771177428947874
-4.4063932255998415
0.012959286599931796
-0.8965335919474613
-0.7748437152054916
-1.9353555755318268
0.005205048296334285
-1.9355520037851226
-4.535959389024302
-2.9476216303815392
-0.7708929279069475
-6.568788228450995
0.5199637394956659
1.4965369398496906
-4.2536522260677385
0.9978150213571285
-1.0265671441714692
-2.119747106975209
-3.533552448364198
-3.532570594237816
-0.174791129161027
-1.8795730455550148
-1.6231467830671018
-2.09480545288952
-3.0566603088658435
-4.701661533160967
-0.21954814754420962
-5.834166459588298
-0.1661458287589605
-2.4722398755898283
0.35263472355538966
-1.5483614196805542
-6.0002612253386785
-4.968644678548982
-3.4180470874383775
-4.000620151336477
-4.47189309465963
-1.8288041614295274
-5.291109686194326
-1.3185255934374056
-4.567800787418289
-2.9745345566421766
-4.168977612722777
-4.581455614580144
-2.6048606052007037
-1.6072122941901297
-3.001654504472507
1.2586374472942368
-0.6889084035450833
-0.3602639869557911
-3.0269546760511186
0.8373897396175723
-0.06102934736496112
1.5646591370197793
-0.35976139562247605
1.9916638504054922
6.172859090764756
-4.0956791905478385
-2.1860128209241667
-3.8036596209494786
-1.4572972342449635
0.16644534891203658
-1.093117554863707
-0.7827714318977288
1.0831756220220572
-2.061029943909764
-2.936906478533979
-0.9833155408853114
-2.417808042817893
-4.043057276231517
-0.7981890613091654
0.08194281816432342
-1.3901228273282988
-1.254243235805911
-3.0743762239806705
-4.01399039253077
-3.3749225645160776
-6.647816116572697
-2.162923643716349
-2.4812661691035744
-3.0395337335258104
0.9260674078768089
-2.064793096697434
-0.7637605958660457
-6.305682996419491
-3.9132639724742146
-0.9276084619129176
-0.692876173356544
-2.6570862193450333
-2.239512258470064
-4.500716745938423
2.375773980139092
-3.2214096953194256
1.0061495284134365
-3.382340461141955
-2.6494943144562018
-3.2822838607443123
-2.31184245011131
-3.007495246501537
-0.5629062745570395
-1.2143379632709075
-6.8291652858156935
-0.902569638478754
-2.168549219162314
-3.4486660865419427
-2.36941270140354
-2.2338257819756224
-2.1189826948983
-0.09317593955118512
1.0495215736080217
-1.446857486542146
-2.761881852077798
-3.106694833714061
-9.270781307809045
-9.89118269941467
-3.4691148243731886
0.5591849479957679
-4.411727234568466
-6.322513949337061
-1.8403724689590573
-1.5073922988731123
-4.633968554153325
-1.470762890850443
-5.280247444014549
-2.889954370511567
-4.065676719866174
-1.5148409587133034
-5.815212626321135
-4.233882635333124
-0.9964306476289942
0.5815739496002496
-0.38330241898046025
-1.793659026731117
-2.924909943296244
0.22621694460210262
-2.6314395557151857
-7.048074679571826
-0.4808196072868383
-2.988348324452722
1.9426720754334303
-4.580921854270922
0.7862297126831617
0.9349773614407695
0.3212829172710204
-6.345979295994463
-7.568817375479026
-0.3043637620552584
2.560898821929482
-0.15713257024051472
-0.7821177869237343
-3.01318107843617
-7.181559300142857
-4.429279068638934
-1.8012342389037181
-0.40757008897591274
-0.23357915385698355
-0.1354198338672858
0.23930508175589293
-3.702371347436907
-3.0354391632001083
-4.016321502433534
-1.1577164336940313
0.0184511956793966
-3.154580969091345
-3.377152633315006
-0.45814364212989955
-2.6586508534725124
-5.787188578833371
-3.0048038992115886
-3.1975393713393565
-1.9794660925190213
-6.765242435442756
-2.8581553656148886
0.8907617458461032
-1.9106079115870471
-0.008242503570515605
1.0189423328130967
-3.6024607341951724
-5.720993840816927
-0.3690222716006542
-3.798732595515808
-6.410278690061091
-3.9583199572264225
-3.304079196069736
-3.6796378727802312
-3.723667755587194
-4.131860282782619
-6.630289263387865
-7.034943875579434
-2.9779436054879183
-6.2092229718714576
-6.753415162120081
-1.2339836949380703
-1.4340111389311554
-1.699230888224447
-2.969991870548329
-0.22538216376241355
-0.44439196737948194
-3.211200941357481
-6.47424998627764
-2.961278455149258
-7.050099483998725
-5.512550868417069
-4.965429706356426
-0.32575628722406086
-1.9248993207343434
-2.892020353442682
-1.4999357950188863
-0.9318021057514565
-2.352860611922249
-4.034237971570303
-0.49900197631354354
-3.4851374515421156
-1.287644534137721
-5.451596212183752
-4.676208852138893
-5.937503304939307
-3.7775484203401906
-5.07604871763936
-1.6544544648394295
-4.3427550113494915
-1.4888325840523617
-0.026792839699282388
0.6803917669130333
-0.9715796675592936
-1.4867508473860809
-1.0722371229736156
-3.5659151905019484
-0.8156124130218643
-1.6649997189185604
-0.25477991663038807
0.01978966564736276
0.2449685136734793
-3.4967185385734383
-0.0030648244638293975
-3.5992902691298228
-1.894239322634387
-2.877938262805239
-2.6193232055342324
-2.768170579952435
-0.7553803932361979
-1.1926452072618672
-3.0835850833989586
-2.0162449952627757
0.7742647981922968
-2.0199715796626942
-2.0829133002733378
-1.7393269791854036
-1.8342950997646712
0.1465496998776267
1.0064140835012458
-1.1683623146394684
-1.610513721999249
0.7478117960785865
-4.718162130788007
-2.0632938253026794
-4.968945051278916
-0.8847904565800314
-5.4245620640348635
0.10681551059537063
-3.840233404550241
-3.469979174712176
-2.1768597389932807
-0.6363817094764658
2.179375054442863
-3.2495349965583897
-1.0198964391409235
-3.6981195665510143
-4.166822561538583
-3.7131568032347118
-6.289457340538658
-1.0666099479966111
1.7967097162851027
-0.31657841896330335
-3.9267208530297992
1.262942834037736
-5.496508026628075
-4.577833338594142
-3.962869050121214
0.3900807751445903
-0.21174133134267908
-4.443256964629528
-0.27099024902289987
-4.179458125772218
-2.430522795129215
-0.41266707530126534
-0.7259655246444191
-1.830880719031939
-4.650421202095091
-5.526392356861235
-4.400539773845682
-2.529857867403284
-2.856208453663891
1.3481684178118283
-3.613948459626782
-1.3191168575907932
-2.7462097242565364
-4.758829284412916
-6.036077244296805
0.44321316751588424
-2.5248857473873385
-5.206962276217908
-3.9562135139596766
-0.7946883536421351
-2.7313395041510793
-2.5911848370297994
-3.252707224462435
-2.679153019212994
-3.6463663836383335
-3.571260305491384
-1.4504605987058874
-1.2950198213303474
-0.6241326599388202
-0.8810021727903916
-3.9894484076240517
-4.950612163844136
-6.792146802073713
-0.5377472662630722
-1.5327306949639294
-5.741660014096555
-3.4640455589586803
-6.360539205943111
-1.774887870123461
-1.2476806810770469
-0.9197853603869016
-3.336269811157825
-3.763671445513721
-4.438828577750777
-3.374994896954926
-3.884945151896292
-0.7283538554099466
-5.5352998340769135
-0.24459134954309558
-2.947571236939699
-0.37599793501149764
0.3689146874240433
-3.2930160437256246
-3.8836781330136896
-4.660870262176697
-2.8201979580592744
-3.325522282715432
-2.665938720120937
-2.551109650377372
-4.748746226016604
-6.0335722373043925
-4.8672449957853825
-2.044289004712438
0.8260845157296414
-3.4265103742524907
-2.4744673032297895
-0.4609047977928731
1.6769754415652964
-2.7502712401208975
0.1567700129820483
-2.703197998601432
-1.1132053313232597
-3.387940695633678
-1.0315990878149022
-2.967668898525275
-1.9454484647618333
-1.336526232103194
-5.389135165252123
-2.2589979693181212
-8.20949788237275
-5.203312958657067
-4.757499092682431
-3.293483477028009
0.548495562734292
-1.2707806188248887
-6.63374129414712
-2.230190775727648
-3.4724750793867236
-2.183296117144238
-4.604395294130688
-0.49230266378799165
0.1697689002230626
-2.764950588748162
-0.2578342149522484
0.47987409235626394
-0.056488285018075
-5.756043866024572
-6.354151607887698
-2.3934593886807005
-0.7689581743147053
-2.4159707137107578
-4.027105790441832
-5.138804697729386
-2.403590535527947
-5.8068671248308705
-0.1254885845708458
-2.1332332540442542
-1.2347675782297112
-1.8011455339285525
-3.1060606043962937
-4.947982148732022
-1.4955700624433463
-7.970227291129859
-10.31917961109059
-10.78928888965881
-4.7265468361488185
0.08903331201009868
-1.7583917567570584
0.563848547752707
-3.144175073901318
0.5874878452813457
-3.0925863309875568
-4.336742160427494
-2.2174876224851165
-8.558552705146168
-3.057892929081499
-1.990624155233785
-4.2987721155754475
-1.50530913497705
-4.081520207948441
-2.812408361932057
-4.9059455409247885
-1.6591874292781383
0.7541864563052277
-2.008521195491093
-0.31977462294200143
-1.0211986999142644
0.2413061554122985
-2.158733010206004
-2.121145802221745
-6.4878052137819155
-0.15063493471828707
-0.1171032123022329
-4.070696297756298
-1.5300460026310947
-4.683719424386675
-4.538461031896264
0.11491462126052208
-3.4948843939645293
-1.1050472678698646
0.5439450814773655
-4.1975113180497985
-8.746682972620214
-0.9921763009199699
-5.96319354578622
-1.0790033179826448
1.2067369280093936
-0.37282671111889815
-1.1011187982214536
-3.385873456834598
-0.29867964488921284
1.5454858395484434
-2.272967640091925
-1.599955838111235
-0.14635111477933424
-1.2314241446911476
0.1773304689323671
-4.344899621427079
-0.7919134079557331
-4.29241553404633
-2.9461428654486412
-4.900893426642852
-2.5407531662748344
-0.8281629243377338
-4.276765375961489
-3.718125561165889
0.32402642233968676
-3.286487597155913
-2.4145722545229087
0.7437738832709616
-2.9453397791140468
-3.598359231416717
2.065328126067095
0.755047743190093
1.3754998976772772
-1.4486421378087588
-6.823287709827549
-5.044770359200026
-3.9017933531733138
-3.104095302167149
-4.745437211464031
-1.720565189832842
-3.1407540476267135
-1.5590940145557453
-5.653944051847669
-2.915729598098255
-1.0213564628426859
-2.0550064425056953
-1.5594917122088803
1.5667511794772975
-0.5904508357776761
-7.785521939644321
-1.7964880145104678
-3.718938387448293
-0.922453342763819
-0.10083925297211331
-1.3425680141631038
-3.7930406123414215
0.3142758436585882
-0.5606062921152681
0.9461911735963211
1.4541654786151157
1.6955635436441157
-1.1255003595969637
-2.7600245489175474
-1.8224336261768759
-1.4379810191646265
-1.7870535896752944
-0.5567436200782907
-2.785288882473024
-5.220193458837728
-7.217596182070801
-3.947216981613903
-0.8048306792709807
-5.16425491143936
-4.894182906744781
-4.0904560538879595
0.18294733696625406
-1.7247103846654128
1.8859053961156063
-1.537231211328832
0.19583976596438
-0.9857897608900632
-2.5578430745856338
-0.5077335742131297
1.718967203528138
-0.32801685738143904
-1.5281153280768371
-1.9807247839074065
-2.4797733780428652
-3.733116228770905
-3.838381692683849
-4.628441608186851
-4.547584658104791
-0.5226373494573083
-6.631100033947232
-5.874722804264895
0.038240236673100184
-0.07081302717730664
-4.298033236311277
-3.18254347391463
-3.1181945756589817
-0.5778508187278273
-2.737843503725106
-0.24867399219552688
-1.3462601494667947
-2.4846751424980003
-3.1516801491081807
-4.135566674668111
-1.4175842313839753
-1.2392203829441055
-1.6845027746350318
-2.188963968542457
1.6421306479607463
0.8273013806038088
-2.090754953304671
0.6425449973041326
-4.508753050274087
-1.8658683972278867
-3.2282705605795257
-1.094166052746453
-3.7613970873443345
-1.149738328161741
-1.8193513093923221
-2.166436132835279
-1.2632349480867076
-3.9861357590649207
-1.3381926760421305
-2.057794222994031
-0.5726063800744821
-0.5824190511193776
2.8722076276301034
-2.395538437179457
1.0928963194756598
-2.017896867388988
-2.4608373656104305
-3.532995134944218
-1.8846894594354433
-1.8577639653951854
-4.231878426784975
-3.6445332700818507
-1.7112446839047288
-0.12364869990107158
2.6796919523533003
-2.3938327789069724
-2.0364137294031117
-2.9855786776428
0.5163506403369146
-1.3620924831518795
-2.783732319534512
-3.431640006731184
-3.6843003822056355
-0.3843301785233408
0.06358385608630915
0.470269252228535
-0.3261997299435537
-0.7346798653731607
-4.701605458289786
-3.7747522714987642
-6.97091878843819
-4.285277906383324
-2.569347430962778
-2.915717022880528
-1.264752928076321
-2.1151044506101417
-3.2594217922806616
-3.5854367461053744
-1.4856226574613403
0.22333540438728033
-1.9668951879918484
1.8820005900081649
0.4766069793594044
-2.872918934642141
-4.77811760209257
-6.240872014968632
-3.0957866544315227
-2.6915343778332876
2.8827642148448858
-6.592165505661302
-1.0553279998477978
-1.7054651826692686
-5.393361120775187
-1.362751028635287
1.231368401852761
-2.108802419557283
-1.2818394570708367
-0.15312324290805993
-1.4146582881045942
0.519569209870751
-0.4028248524046327
-3.9834710961706157
-1.325701226995343
-2.4771439408076725
1.7559868983541946
0.25026933153929637
-4.212769849494589
-1.977934569442805
-2.170223747822928
-1.7654742993737587
-3.7144883940308895
-0.9770225658397866
-3.75735933711498
-2.1452742759719015
-2.3616949645323584
-0.04665332696796516
-4.661980863939518
-2.034917001747542
-6.411509374241675
-0.3536886671323992
-3.999080086024945
2.647030332210679
-2.420172037076078
-5.083133228236717
-0.6438176111894046
-1.6493779840004266
-1.2025597588403079
-2.036618774952692
0.7701729751803359
-1.2643785345097966
0.8345833787030555
0.06974233676416396
-1.661593920278051
-2.0629517837335145
-1.094473766307269
-1.4982957185089056
-4.2097837281169115
-1.392163643664487
-6.390368972470188
-1.4672047148440859
-3.7589176153862933
2.2445448243806436
-4.100838682519092
-0.93785105922099965
-2.598088934547925
-3.5441258780253975
-7.484821989348711
-3.329984826335359
0.06877770824095185
0.017257507613890128
-2.2972243532644994
-4.478849167128737
-6.873800527109521
-1.0538251442244917
0.19079704012298906
0.5761193649076549
1.870523907010054
-2.9481350190941895
-2.300965122971041
-3.519788286028925
-0.7808101175004831
-2.7651238637802034
-5.5519113190417375
-5.698823061258006
-1.8099451419004013
-3.5602739927215676
0.2000125393026
-1.7237538254633904
-1.635331998073895
-2.738820933930875
-1.2969916007231703
0.459299939046517
-0.8709735004653664
0.7875788907477289
-4.517715277064674
-2.3026831108811066
-1.8694146215827876
0.9725756661161465
-0.14590769747953353
-0.36388671420919505
-1.2998577921895282
-0.44049950905232904
-2.5608022907470187
-2.9825437275081943
-1.8175984517939345
-2.8808873958157526
-0.5792954447187595
-0.3806567266064913
0.2059927155405117
-2.0472735513029425
-3.2729631588075283
-3.6598625139024463
-4.077252773347796
-2.5193924922112907
-3.160471287970154
1.6969806689930897
-2.8323122251081885
-2.7327363475380597
-4.472409940813367
-8.203793144327687
-3.9510170896338375
-6.36731041599724
-2.4991598772835117
-1.7090710354239083
-4.84535185438815
-3.390453141513553
-2.1038217474514367
-1.7202608952188032
-4.98216436186037
-3.598524755006414
-6.329449401934134
-7.646999300912349
-2.7211166536173574
-2.826921154517471
-8.026516539950942
-2.474673504867982
-0.8184767723448437
-3.2359749862861658
-4.082774120254052
-2.776566098696371
-2.1515655925948223
-8.288111367749487
-0.9323027495232762
-1.6444998103911128
-4.807395612578805
-0.4039762095922392
-4.267021254913812
-0.653059376931489
-3.6214109591045207
-2.9220636909383346
-0.10781035008235029
-2.0438837620504398
-5.113072422767695
-0.7314698798398609
-1.2874671852136323
0.2245816921793125
-1.1035370671894942
2.297685389968
-0.3867296393124986
-1.7359720951981301
-0.9189902578226635
-2.3277548598536093
-0.988024567062683
-3.116183446098219
-2.5566481573737674
-2.9805729819855067
-6.558571702454142
-3.55677208647642
-9.269153024903009
-3.3617762139650376
-0.240044833344999
-7.444465777989343
-0.008605519916024233
-1.2983882387512038
2.275088944851031
-1.736332995386973
-4.150835285142409
-1.8597394491063848
-1.3323860205060838
-1.2856640778003188
-2.674392075835196
-2.2631281605765503
-2.871642767721236
-2.055897963857388
-3.052072983785572
-1.676804291572146
-1.3211070768104216
-3.8269583155250717
-2.2842551682960255
-3.3133409416354174
-1.8671680960096395
-1.8887590885425263
-3.4855492164998174
-2.8975076470318903
-5.549899696017811
-1.7434198684459135
-3.6897362412628536
-2.3927850793153858
-0.2273748945162355
1.2574605337345113
0.23760755568532146
-0.02101939853978278
-3.262005995786805
2.3293284471984226
-1.1069622839869335
-3.555164560018285
-2.6048363026270014
-3.3050883805330313
-1.0455111456923862
-5.063774234020093
-0.02643578402557328
-1.7680793360096227
1.293985278942447
-1.8820282874555454
0.44354816832806265
-1.3946990560908983
-1.6355582716987878
-4.093609624453862
-1.4404374439606302
-1.292349839467283
1.471956620211684
-4.2766162677859
-3.198903603786234
-1.4884315494125584
-0.5915220278255678
-2.511563322258396
0.16285100639028136
-3.255329727926803
-0.34662543257102424
-2.192240760461685
-3.6030179498034522
-3.4007145015944267
-0.8415566176422431
-0.8023197944192175
-4.524204152125929
-2.294190500670913
1.2621215733798072
-5.558105315268306
-4.578950413124172
-1.2479307521371013
-8.091018637476965
-3.467358759036346
-5.520361484245739
0.18097684234737144
-1.9132097189158466
-5.695064107033737
-1.314347802224079
-3.6534635897576466
-1.1326420132151587
-2.1630545816109117
-1.4388885678522465
-0.14634604334565138
0.971761291785213
0.5261021322973707
1.276182091961277
-7.088455771279237
1.1625805803356581
-4.270777706609088
-2.9515962476914264
1.2139853271354104
1.868538887303364
2.4804844116771916
-2.7804903091414706
-0.51284236745381
-1.6497155054074417
-6.2660774313437155
-2.3938759610159686
-1.7716762510939397
-4.392174271124704
-0.2719677497809102
-0.30124903001863623
-2.4552749247952543
-4.5374371129043425
-2.4063784250618028
-2.7423839636043694
-4.121792516046874
1.5358026740917794
-3.0946683486388173
0.1780576005587053
-4.045496314519995
-3.7647733562039254
-5.397338460799828
-6.123911595498298
-3.2971107384809577
-2.338390837028665
1.2400852163357043
-1.1815119783692418
-4.097419127983494
-4.1006651942451615
-5.729004923594013
-3.813770644238079
4.65243881403637
-2.929920205134489
-3.729285084697695
-2.5035825150979916
-4.962565664228573
-1.9577560866956636
-1.95510046890742
-2.8596957216807226
-2.211076732093699
-1.7397868117099764
-1.127571425175561
-0.9388549837290736
-0.3211616957140101
-1.0996465229783505
-3.908121599535551
-0.36141583991313314
-1.4519277075466765
-6.838184047373668
-1.678507977961968
-2.1342375213457387
-4.574588234527744
-6.682912003222938
-2.348672031124601
-2.6681131083398233
-0.8907460575471177
-0.06461251322427151
0.45799861922899043
0.38435309220998964
-0.7699886901015418
-1.728534364786704
-4.28046165899544
-0.6450215729438544
-1.0138492198969895
-1.6777373835463392
-0.627895865400429
-2.584849741016766
-1.7335520178650716
-3.0687058305730286
-4.884231457855401
2.123515736728092
-0.06666334984975313
-0.5934566046580673
-2.548934384471861
-3.1823847675494443
-0.0904908362096272
-1.3402173544556433
-3.523854600720456
1.8985160622642465
-4.3754887698702
1.7024844978054532
-6.929260908692226
-5.6271756285901295
-2.5882563588337457
-3.490393541470661
-0.586736007974893
-3.548115682835051
0.31397968127394826
-6.9045809730516945
-1.8200940824297056
-2.6057748236658558
-3.648493882697237
-0.977892051764254
-3.431367436200365
-2.2318423121137587
-6.217920471478317
-0.16341114671961118
-1.5532429828393701
0.4547473773961149
-0.04451252728971765
-4.53168605081193
-6.833493362336349
-0.8787051319828701
-5.625190390094659
-0.9005770102645702
-0.4385680833052101
-1.7641026588282063
-3.9187778799033395
-8.197743381451842
-3.663778083726834
-2.7348648942637435
-1.696957053178627
0.43307105340677643
1.3233624509247084
-0.4957159045883799
-4.34424458281168
-1.9491990888692692
-2.1272018644753605
-3.6853452012203127
-1.6810471487945717
-6.521845736018978
-3.313728647450802
-3.1367618887753674
-0.07775181559486731
-1.3331443584268508
-2.153916688689445
-1.6435377295275049
-5.232137851977099
-5.991224531368656
-3.4828848762888622
-9.447647579221234
-9.589516669458254
1.356729315832909
0.5972583399380955
-0.8661990250885285
-4.447194360862868
-4.151919883866484
-0.4970800617750453
-0.5447139986835351
0.19363913205549874
-3.57441771010498
-3.3488068640906015
0.3035140468626223
-2.7815752839855175
-1.7824320794024164
-4.7376661646610705
-2.773607355219289
-4.9342242384956325
-1.7484334825438697
-2.6373342288528208
-5.556206105518619
-1.8655712132949789
-1.4113929434833492
-1.5024377580191561
-3.271486003696301
-1.5497281655028805
-0.3014411928547261
-3.179923223571223
-5.094091524640035
-2.4490197318816564
-2.580986012876131
-4.657875623701291
-1.2419888810529989
-2.5651441538025312
-1.8237323020817793
-3.211096686367001
-1.332687638887111
0.8440632655572977
-5.883884688752829
-5.569647934254018
-8.166873971611539
1.237152270264502
-3.2109145188027526
-2.805867725088468
-3.530934249384263
-5.875817592151925
-2.3044677349781133
-3.554208395079924
-7.3520409427491336
-6.845502007242438
-5.519032610876808
2.2376630116500955
-3.73454599166685
0.48630329579423204
-1.517745736034211
-2.7494128605769297
-3.4084500103885147
-1.9319751720964369
-3.2277294433706087
-2.3588955136699123
-0.8023663022153328
-1.2240467920237927
-2.432735598046082
-2.124911544279701
-1.9158697755260394
-4.255420154995226
-5.729215935858017
-4.788215930014618
-3.6848398511202025
-6.2394561568232145
-1.4630564593246647
-0.8156804295438043
-3.6744380960505962
-1.5567055796039786
-3.954939008318361
-2.1455445843826
-5.040246004664055
-2.5855147716265616
-0.8959705181262534
-3.2403216202011937
-1.9461474076355287
-0.47554277113608817
-4.295913155619414
-3.4644522750967752
-1.3166697552514002
-3.73396491973078
-5.219602924815057
-3.253580541880782
-1.5253858595264678
2.966438761180151
-4.844721844401431
-3.6055026365659346
-2.0334791505087177
1.3594321654311132
-0.20259977018949948
0.15348441854294495
-3.9031811935618372
-4.558875214939263
-2.156469158455291
-1.7609659793360686
3.194029960657862
-2.944642681157105
-4.651123142409129
-2.9217235835167297
3.0617795099636083
-1.8105026118345868
-0.7220633631143417
-1.3448944063772112
-3.9235753749156768
-8.010855398183462
-0.6146448928004439
-0.09092003675630526
-1.1715400089943102
-2.6560468076433597
-2.9772249443074545
3.235500348048233
-5.627766509058679
1.4024541163628688
-1.8128541889557759
-0.93277111218047
-1.0964411193110806
-2.2913881956594397
-3.3296201431962404
-3.9791978272594464
-5.180534949626518
-2.6512096341609555
-0.17066615585225425
-0.1260996494990056
1.4710675516034781
-3.42422642740283
2.3795375685536113
4.579471558151993
-3.6412561059235142
3.8604347059648276
1.2051040984737234
-1.0316268057995888
-5.125233261147572e-4
2.185999902334307
-9.194189823750117
-3.624320303827309
-3.2453398212700413
-1.6810930332037093
-4.746815712702615
-4.919833213201857
-0.6463748066735506
-5.364232651963579
-1.9563908115774926
-0.8930084310817884
-1.0913584118269704
-1.0521811732017798
-0.3017063788606379
-1.6765574874669171
-1.1495965976646607
-0.9154225998060617
-2.4455212984265793
1.7790203698205656
0.5898449199912678
-2.4187378620990994
-3.438481079363949
-2.0743606396854726
-2.917851146606683
0.23463123174077713
-3.7159911951000395
-0.46541487593947933
-2.476642130210362
-2.142984661818065
-1.2091413880404633
-2.1803191795666583
-2.42310875076959
1.7723049002549245
-3.125722255728996
-8.960081732475121
0.5572182458795498
-1.663470006399552
1.3184418241146632
2.0045910767030004
-1.6623892669832612
-1.825013075814722
-2.7605460505804027
1.3763831088813523
-1.3686334725835412
-4.453793819053426
-1.7200033500469922
1.7628050187783222
-1.4988624861366793
-3.771050185141456
-1.3313961888931918
0.008884496437133427
-4.6052160184633095
-6.170594583556385
-2.034255994454363
-1.488933919062627
-4.60122745506707
-1.5549426970067364
0.414724603653922
-2.2832094704902595
-1.4699936139187846
-2.836017934927746
2.3689688458200333
0.014708633893941248
-3.3633377340582356
-3.746075032066707
0.1322870525344454
-0.7342146797629935
-8.206596011577576
-0.4378884223630721
-2.0944495445874107
-4.237845638845602
-2.14070765753829
-5.568474691869891
-8.757187497569724
-0.6855173832555401
-5.633316988582865
-2.4758238928341707
-3.428777360812578
-1.7765054439755907
-3.700498723084753
-1.819469373736978
-1.1411274189550855
0.180048774795946
0.22433738536131034
1.3792283647541317
0.29157571678853245
-0.21267823210489378
-1.6469798800022815
2.3711638605860785
-1.0476067858830933
-2.6715315457337194
0.6123568034572426
-2.1595247113843805
0.1275622208045216
3.473592815819928
-2.5617836773298652
-4.510945003354359
-3.092510299074255
0.058350853061134425
-2.769433165283375
1.2908577158799706
-0.6936134222069094
-5.767278835611875
-1.8681243089021777
-4.161534464863752
-3.9095801839431603
-0.7918428580241471
-0.10838783803865353
-3.1077989921144296
-5.396463233453092
-2.7352124479249063
-6.2951294410760275
-4.8313873585206215
-3.346640040802739
-4.703548780553802
0.05365630505989214
-5.525664930166676
-0.16274139404536256
1.741865932980358
-0.38542153150006747
-5.025984212957678
-8.339315337898448
-4.090857381850299
-1.424687712306128
-1.5766274287877446
-1.4218291100157179
-2.230006854331532
-2.254788201524035
-2.270019383016063
-1.3190455138721626
-4.874252475499823
-1.2107019549992584
4.652541470807739
-6.8862823409913965
-7.20896489684237
-4.645969146597973
-5.938396237773445
-3.1352327970377205
0.7527441142665218
0.29462306750399647
-4.171785873779986
-0.9275569729954666
0.0628085306177581
-1.991424843091279
-7.439334004058263
-9.424042982731342
-1.6929238320024553
-1.3268643401522813
-2.324283190421298
0.7958082129498982
-3.85450626298517
0.018421568194544782
-1.846165868270064
-3.0564602791011053
-3.033682319722553
-2.6590041320102498
-7.055970326667727
-1.8164061959505258
-4.041751393229067
-3.6330016744348246
-3.3308993868472285
-3.400386011683982
-6.287407875817877
-6.1586517071362215
-6.718215550146978
-4.958538201947977
-5.5658740573108885
-4.931243148888845
-4.907273058178729
-3.2436977995972893
1.6387317964809005
-2.325918568602007
-3.1509643076150162
-3.3156383282401833
-0.7278242489590658
-2.3181749508673026
-3.0393140132063894
-1.6325317383827027
-2.038649046461743
-1.2656423867329776
2.710134003285218
-1.48295008221556
-3.085186805920222
1.4366268181647284
-0.41028375030650355
-1.507089636538015
-2.5729596011491758
-2.6309614270104795
-4.4776930882244885
-2.7067559601170985
-2.886855243486304
-2.1198074021901268
-3.2837655954127913
-0.13775239433648295
-3.5688224314840116
0.839219493413187
0.09083096950131646
-3.208320759585704
-1.0260401740141514
-2.965895164998342
0.5348598140718089
-6.102153768652295
-0.842357650355463
-0.5738697685619043
-2.7046697302851572
-3.5537349159715474
-1.4087371151718742
1.969985782816966
-5.320779819651345
-2.3198789656892145
-0.8591932048172606
3.05767643902545
0.5454918306308135
-0.3594055103835227
-0.2073152974452105
-3.7608918709152896
-3.207178999825175
-3.0573640255068115
-3.3676523144983537
-1.6512983479334642
-1.2440939459820977
-2.5001760987271267
-3.884871183524472
-3.6289257867297975
-3.4382395020150303
-0.3085581601042632
-0.1121658536573557
0.4916756630528036
-1.2564076498805352
-0.06312609453717785
-3.765413728730113
-6.3800433443295415
-5.555388984829393
-3.6936977857613833
-0.8463647875272915
-6.353217887043942
-1.992082934805206
-1.876211275499212
-1.7872533059857423
-1.8280024364223608
-0.7858139594551313
-2.8274704606439105
-0.5034460122101444
-0.761835154942712
1.9523849435351333
-5.352168560532389
-1.1593090049559152
0.012791486890613202
2.181702997475067
-0.5726213913593067
0.19830452977380741
-0.25085873626677807
-1.061629259349023
-2.712813053959392
-0.2975361232550439
-1.4742301122946981
1.3627569781736
-2.7991667320587137
-0.3321815339250244
-1.0888325883504657
0.24791909881944024
-1.5618372503469733
-4.411305740409862
-1.104766653667051
-0.41047507329845717
-1.9985992296513126
-3.089314573668741
-1.0053327857509062
-3.947909786314252
-0.8700671968468886
-1.6742600929366087
-0.3374212788424154
-0.8444083329142801
-4.901177929058688
-3.379863105571372
-5.390105187563065
-3.219115002297535
-2.034354306166195
-1.3533517345211605
-2.2898891090182114
0.3893818972435411
-0.2857203729595362
-1.7501336789540605
-3.6141655487056337
-0.875537663470689
-2.895461341886342
-6.126718961032917
-6.224997084754544
-1.4440494847268555
0.5281869731704225
-1.0167339038087533
-4.103507748931934
0.32194921428299006
0.37391536898675964
1.5481114172112216
0.28378280542809753
-3.6285019850001095
-3.728632590553391
-3.8710012685626833
-2.3872341100291528
-2.880626018138327
1.2105299716281086
-2.3481846132709943
0.8952975388783195
-2.4162771660769606
-0.014603613359853716
3.2622942167295124
-1.4698788686181714
-1.5504715398494786
-1.853648840281548
-2.5640650692226608
-2.514071735209049
-5.458948551056069
-8.799825246180626
1.4637705896970539
-3.6889545427664863
-5.912265055951387
-8.617225747190364
-1.9663116186986016
-0.848240259966798
1.2077576225715596
0.6166846475518704
0.18862338373802248
-1.4141650123997525
-1.8223993086826347
-3.150464155733809
2.4246727033172157
-1.6739177043776214
-1.4375502887948217
-4.271871885155123
-1.4683137360799892
-1.1357597212163604
-2.5898103189440853
-7.085356906430895
-0.5959808403014623
0.9680816260864511
0.15879875588529768
-2.8544028905279624
-3.884735798640454
-4.043442697750864
-1.781373294958027
-4.10177924507811
1.9775121068759751
-0.9132723069784511
-0.8179638021626954
-2.6247761129629485
-0.3476416062651476
-3.2399465280322226
-9.12610566581343
-3.591913111548067
-3.838846710668764
-4.008128793116765
-2.9542142417168584
0.513674827444597
-0.8803470910295084
-2.3253263004208735
-6.701943783544539
0.19110450667833515
-0.3292155957933556
-0.8676095520027148
3.287730492799321
-6.104755540228368
-4.014295824718056
-10.270287455789111
-3.4716338928855515
-1.5154911372039295
-1.8196979378140747
-3.4042167650657267
-5.65552216145829
-2.724570376687904
-0.05235872564744319
0.11324928140097566
-2.4956463965318605
-0.22972416564189538
0.296555647606227
-6.111694743660638
-2.7132927447099005
-3.7169078230547226
-3.385977444758118
-4.753011879890192
-2.340559857034252
-2.9645339461308478
-0.8948118565941431
0.7269534661185612
1.9854732646984201
-0.1011981663661144
-1.7173550493101035
-2.3277218561944926
-3.6204473080060477
-1.2187782420082316
-2.1845498693826406
-2.4916177903015253
-4.346593600107333
-3.739599258179253
-3.0844048494878193
-4.372177279734064
-0.17736700088402158
1.1114557657529613
1.7509081634573835
-0.6760992052675268
-1.4911451888534326
-0.8431049604992147
-6.069802947770064
-1.003517986140922
-3.0526902499336876
-1.1689368493062924
-5.572834181454237
-2.4591417943228358
-0.8256134900589925
-1.4025886871677144e-4
-1.3540216868754997
-0.11860796857233437
-3.3106230975648385
0.06788637361219221
-3.597492819113991
-4.812810733784979
-4.200529790318487
-0.3062481112606254
-0.06241189258990457
-1.1523781606323584
-2.7415589818528328
-0.3979934956692105
-2.296490866950081
-1.755807510928333
0.28816495315953994
-1.7262422408047702
1.4440862694917165
0.3277572827850921
-1.481931060434439
-3.02807494841749
0.35572586915661136
-4.809947680167199
-4.905374040126959
-0.6091636307719287
-0.6792084937741518
-0.88131233436765255
-3.2285890875281247
-2.5009190685014566
-4.635331052727781
-2.9461714810320854
-1.9195764870572527
-2.478172301308947
-4.7042858165810655
-1.0301068111208027
-0.6377327011393227
0.8275608138152962
-0.2282839392808849
1.072593977738642
-0.400668365903444
-2.824032813065458
-4.66975341988453
-1.9950952537338407
-3.930444602811468
-0.9486055384439366
-2.2694528135196275
-3.8386602149308486
-1.364390745627512
-1.3806874076098952
-1.7320231342752344
-0.17415679546222523
-1.88110844245281
-1.1540426906170718
0.2774535836817685
-4.566964338501868
-4.0146300307939455
-4.078180167817903
-3.355895406692446
-1.0805164958964293
2.230011149339818
3.6278536249850246
-0.06890611013502526
1.5485983735306235
-2.1288367678776665
-0.9000980064668006
-1.828760254532195
-3.9637625347209142
-3.1976138389737163
0.40742385708978973
-0.4700451191642236
-1.9177498317287163
-0.2805786263232129
-0.5519215840796703
0.6268793054215667
-4.961818627513383
-4.277702423763821
-1.406739826807545
-1.5285026703858822
-1.519844648297395
3.0426596211359485
-4.1404874594082255
-5.566757491672339
-5.739847722995741
-8.144517298968184
-3.3391809666474694
-1.2386228316855785
-2.229135108208407
-1.5709230056270957
-2.084247418480832
-3.696650679318289
-4.625149058058852
-3.067190086633841
-2.220897038573833
-1.1732727027124235
0.1150616715645116
-1.6103206913189618
-3.6056085900191404
0.7939488002791968
-4.075651782408361
-3.8118720519784244
1.5192930287753597
-2.317327908299023
-1.124527616830446
-6.375701614578369
-1.3942330395755762
-1.2826017669235714
0.36862966933556224
0.30075276501189935
-1.6999812291521623
-0.9552753455275703
-3.928766656406362
0.8830289723348215
-2.5334242393507758
-4.274515419874953
-2.331823231207323
-3.345745902251293
-5.2128837514474915
-3.046384421621735
2.433287506559083
1.1530462733446274
1.4871017417438874
-3.191130721728417
-3.72551731508427
1.0980685958812308
-1.223628976701479
1.6203253920529055
-1.3928797316337511
-3.5939600018531137
-1.459843726075371
-0.4680889175668257
-2.0525431062708988
-2.3754893070118044
-3.3235463622689343
-0.7919721182174512
0.46568776232646425
-1.1436368333491356
-0.41389216469113915
1.1124736280261807
-2.3615398429335634
-3.001217814611486
-2.3145213370141984
-0.8540585995894102
-2.0985989569127463
-0.05146406255282538
0.7322027950256564
-4.306372985969169
0.5354632893098124
0.13575822871787402
-3.1749458866625746
-3.555160309547446
-2.033446501110827
-3.8718848159014714
-2.086372022478573
-7.004628686452003
1.4218020252249943
0.5910853922601979
-3.840802945060148
-2.2974716070415315
-0.09728711745845062
-6.935163554385226
-3.5127540162704363
1.020552170004617
-0.9311430317602095
-4.914872441438021
-1.1193960108886525
-4.680118332532095
-5.332140566672384
-0.5214319728695244
-1.1675657790899774
-2.572561687907541
-3.0410695926959828
-0.5434592305160262
-3.3610255159967823
-6.5108299263624785
-5.786293905336798
-6.303724734741541
-3.8536474856896445
0.15094976330757306
-2.3076296566455805
-4.080163480363289
-4.3596821562868096
2.0501617811375694
-4.28271476141409
-3.1016486564834174
-2.6355561261166796
-2.5393341486458127
-1.733939116953422
1.2735984534280995
0.8884110289989077
-0.8138831303761691
-1.6176638923067574
-4.233478207599897
-0.7776826084142255
-3.30456892691126
-3.66611407485092
-3.5612879134510838
-2.180651934284197
-1.1783471881916783
-10.119536370467772
0.20865710196954046
-2.682180695720728
-3.7481986224460533
-5.115532964963472
-5.411117903073042
-2.4177424190076198
-5.122560343172178
-1.494054794450888
-1.316238983591901
-1.2955787738387239
-0.8170579916252185
1.5633954092565403
1.9493282979559174
-2.876838935260994
-3.1039397379796654
-3.196117269147473
-2.044509849690641
-1.5448011803972783
0.5432760470006244
-2.9288572343744117
-2.8205334985402044
-2.850961611808336
-1.4451115083614576
-0.04059578891694919
-2.510669307883514
-1.265526216710004
-0.28766661581280845
2.2907550995071135
-4.655030578326342
-3.1544347391472463
-4.203882351078206
-8.681796299580718
-7.474556825122453
-5.943857017959167
-6.039645343175016
-2.587672991716578
-2.326776786143188
-3.282646263686163
-4.87126103179376
1.336041498333675
-1.7036666517681802
-4.7220627708861524
-2.5649032248111885
-0.728429477306029
-1.775645787338802
-0.05691050875254049
-0.8845954807648408
-1.4692934344633282
-1.5205969986292556
-4.201775343577057
-1.5232548556853072
-1.9949328547163394
-0.3993005780352986
-1.8642713169311225
-5.103001677390639
-1.4927838431261107
-2.897154048317247
-4.085926503460319
0.28638293317411084
-4.516391873799468
-1.0442660914721438
-4.935815294633115
-3.2102926939042695
-1.1713933027133212
-3.0255523426253204
-1.178939543480362
-2.5009729707145603
-3.8166351108608483
-2.1422600509570375
-3.6819251667461916
-2.8560851856275287
1.8393750384098322
-0.09022123523774407
0.11346179736991929
-5.546785481735063
-7.335961652085617
-4.666927487172129
-4.539885493420422
-3.7716306938315225
-3.6784184652961605
-7.521524427793462
3.06314347324563
-4.239538365428011
-3.2283499922606214
-1.5993389043702484
-4.635467985232631
-4.701658658980477
-2.2086951825036447
-1.6951624729353292
-5.851909349727259
-2.6646313317736117
-1.0317639147350088
-2.139695094104511
1.2528561109308414
-2.377244341541366
-2.7465171457671715
-2.439546965235822
-1.4860052303890232
-5.550436677927535
-0.05598836900925623
-2.08057779951207
-0.4218456950884112
-3.017513534887284
-1.4391401422748609
-3.0044047781012
1.24437375381965
-2.194137388043137
2.414424132965445
-0.9006004870276354
-1.1081498917573136
-0.5605553285012055
-0.9428295236739475
-2.0614267924181857
-2.2486658645101234
-3.57571219341509
-1.9150437989038442
-1.448731829438825
-2.0396012995580723
2.099715720963674
-4.9392465659044396
-2.36665778817277
-2.4946229446282078
0.5650766577992145
-7.343991058333162
-2.525292314174953
-1.7790553119930879
-1.0655341021266136
-1.08357520518337
-2.2770195320118125
-1.718670537208906
-2.3558069025350767
-3.4080138397553026
-1.9661067499016949
-6.618145666462708
0.5120389711096649
-0.43221811908627245
-5.214752746928296
2.8855848197728395
-0.9244505771046951
-1.433205317526633
-0.9513556303306142
-0.618957587967653
1.2939059065505225
3.6969118598723076
-1.685341703860551
0.6827069766870054
-1.93328060773736
-3.3418716412671863
-1.9686089345123254
-3.101386315281583
-2.62918464698348
-3.6219668209129536
-4.309890682299423
-4.759588824915066
-2.049493610305437
-8.8297642072146
-4.84416402407864
-3.325660483344402
-2.303491814832606
-5.648662812573853
-0.9123680730173804
-1.9409303656041017
-4.393516426344878
-2.0713643900371896
-0.4310906499900376
-1.0627448769652517
-2.0438424703649094
-0.1421853151570459
-3.8995676935906385
-3.7284318805792367
-0.784693517613306
-0.9165461326848973
-2.853095391346358
-2.292595106565728
-0.643976090104291
-3.3034109723967897
-2.609254993886914
0.4960396738097697
-3.930743726909964
-0.49755373044990947
-2.2361879131740965
-4.959305774595583
-4.000809257950546
-1.7676142080410062
-0.42385615581477415
-1.023369652083282
-3.694130130667788
-2.8636479186456683
-2.992571545731037
-5.479315671215573
-2.1624123231303702
-2.3749771722270614
-1.1208296565440103
-3.060386161588194
1.6187433028650398
-2.815673008731702
-2.0295234946957126
-0.4938404682591664
-2.208287432506065
3.24472471361158
-1.9045907835381324
-3.012564452168217
0.7831717052026186
0.18096530195729083
-1.2039927406852726
-1.4696557227415465
-1.6164000130777452
-1.9142215666003835
-0.29059092396309383
-6.202274970903437
-2.443016815978493
-2.0652995183198244
-2.758143106741191
-2.962839985431059
0.050167010783365495
-1.647922629662824
0.05350950451601456
4.927672022885312
-4.1806392315252685
-3.858947641506574
-1.1154522012275538
-5.761145343847974
-1.542014479887833
-0.09673165610043702
-5.262150000324488
-5.1035565429642
-1.1438409205289712
-0.8515299626991208
-4.31540329064629
-0.6770550541001191
-4.8538764831846715
0.9678979905861963
-1.3155827079157891
-0.3649846637681955
-1.1789620076491951
-0.9034096772579738
-1.1817744110879156
-2.838291468239893
0.45440244274593816
-0.5314499139521971
-0.14185456722415166
-3.3121178688310455
-4.228443147720155
0.2843535770536811
-3.4788651394448924
-1.079494559996173
-4.0337413589933435
-2.1332713599964084
0.005188297227206924
-4.18326590496571
0.39218880056784955
-4.728395237918336
-2.4938937991246277
-2.709519614991592
-3.9587009132241713
-3.3239165803720336
-3.3328051139726944
-1.113241248887386
-3.73559778800601
-3.6693790986567043
1.0474295772173852
-3.574639045611321
1.626268360922983
-1.7626220125440286
-2.7985833353745906
-3.835687461313941
0.5584709782255431
1.1507823838769726
-6.817850792597999
-3.279967713287626
0.43084317360913743
0.7477803184674147
-3.02291343597031
-0.3335831275052792
-1.4545745284940985
-3.7617244436782404
-1.2296074889169577
-4.497762176206922
-2.363286874659203
-2.565898412475504
-1.9970985307202964
-2.8093290152655244
-0.7569146120928947
0.6651062432270749
-1.4772056229482433
-2.873533803893875
-2.1501133893832214
-4.819764880617231
-1.123350080366196
-1.6536108656079578
0.9220394436400029
-5.261859349734174
-4.7738752898125725
-3.0261587917567034
-3.8962400714510763
-4.96170480012047
-2.954417355821052
-2.6475120500040537
0.16494525840376562
-4.291829445776826
-3.9730344989201516
-3.7453954269822827
-1.935430664052183
2.190823060534931
-1.3207811170816441
-1.0318077193049775
-1.0841395743315332
-0.06507226276593134
-2.3988028881151418
-4.008340245552764
-0.18242169997114924
-0.14601805359430697
-3.5166907239848717
2.8787078501388357
-1.720959272761289
-1.079758960648868
-2.8774563200645056
2.9105318148065202
-4.011482425738447
-2.773168585142978
-0.6786209602265864
-3.1506625715666394
-2.791142878742418
-4.008643456213817
-4.032710043927506
-4.916439108617832
-3.536386774709531
-0.023267410632030232
0.1778471242881813
-1.6713622332497176
-1.3820440919837615
-1.3908140548643073
0.32041362350691294
-9.958186303862378
-1.2755111829626355
-1.8244390728690847
-2.4656663626354844
-3.9758165051402545
-0.3599777674151574
-2.8317720108619415
-4.245891902068855
-4.546879614595388
-5.990685764297366
-4.26737316353065
-2.047235522777549
-3.451144124748213
-0.10465442644329515
1.8667149202702118
-2.092032933343307
2.3928986371015215
-1.1706853037623755
1.7372479190169317
-0.8351706998513816
-0.2814346021158584
2.1833092075654386
-0.31955785709878826
-0.9371794636460933
0.8230128571164781
-1.3503232156653902
-3.5878300451955907
-3.4869115971261695
-3.1678063351629255
-0.13459373199166225
-2.0893989319777884
-1.5191088044597545
-0.8922195805510469
-4.299387854765333
0.6658364652948856
-0.9155251571289572
-0.9469119515099739
0.6554681252399952
-2.1009781543621844
0.8994313836174056
-5.128406759396346
-2.5560265519052328
-1.7016798060621763
-2.6340770379703415
0.8331032378702028
-1.1587572108057058
-3.462928271927198
-8.056978974223023
-1.2732703936503162
-2.792457101846828
-3.976545408938499
-3.3387420804908823
-1.283350709376298
-0.8383564427583399
-4.556621994379817
-1.320237035134326
-0.857670137433439
-0.30534585889816573
-2.4264892197875505
-0.16776159054627593
-1.4351169859900346
-4.987893520699736
-1.0401181797226924
-3.1766763107127183
-5.360757244038111
-4.040607231263577
-3.075792250092055
-2.6633653395570955
-5.789098240354917
-2.1143962208339127
0.4465925712700445
-1.1474864541679397
-1.392107827788893
-1.934822390582801
-6.357773264978281
-3.6344222921840514
-3.6004948674771593
-1.5156681028864234
-0.3834745148838056
0.09232415001641969
-2.671387491066413
-1.9041887561434716
0.7339925208537111
-7.344162424928626
-1.740393073202375
0.5502564597376796
-2.3014490938893983
-3.1268798454602655
0.3154503432313734
2.359528741088037
-0.8427161822172079
-2.8642489735478223
-0.03555034867511553
-2.649467151279388
-0.6487825002926249
1.31875209493034
-3.1795185509397665
-4.400023413551256
-2.5859027114751947
-1.0397257147876686
3.806367421758296
-6.096949858653057
1.330324741990913
-1.1311631519621486
-0.8140422077538633
-1.5500817768631892
-1.7401213276676104
-3.570629217249858
-1.6720789898092485
2.4679206871921107
-1.078969108882871
-1.6194199324908862
-1.251621918619167
0.031317689367738134
-3.2982236467444173
-2.477214937318823
-5.8105781599466235
-6.378964404990792
0.11063978440881818
-0.2905949289868483
-5.491022011033496
-5.792768752334959
-3.191276029121227
-7.1181925526329515
-8.700956874909112
-5.1056386407861
-4.7674665854151455
-6.098323375155681
-6.1814663821893765
-8.168507020135449
-3.58458556857827
-5.5845462728820925
-7.605911443980598
-7.016907220255102
-6.288375996948857
-4.248575595687125
-5.000477385372122
-4.142676588388526
-3.9064588220127723
-7.930825632573083
-2.742806017207114
-3.2202228959179173
-0.08561302254317661
-4.993266465300136
-4.911714030620901
-8.528946902715324
-4.744426894467357
-4.705503631750105
-7.023984683624209
-2.6492967715309987
-1.2857462917211386
-1.002662274357088
-2.08311966635696
-3.6291574144631826
1.4920111217588632
-3.252876180488652
-4.0020116412242555
-1.2978293663673948
-0.9947566299761713
-0.9280163845754379
-3.23351819552169
-2.5496504361167847
0.8731634601906044
0.12131908060907193
-1.104172951480487
0.09327198545430951
0.8506426592140691
-2.6705327543002664
-3.853906311495296
-1.0992567396244477
-7.390002301905037
-6.289042505901342
-2.4217092431313927
-2.8167188490348805
-1.501681577401603
-0.5249333045405229
0.16051552766965846
1.6503853965001258
-1.408291397982064
-0.7768543867760702
-5.415549117510201
-3.7509480065703773
-3.535841615645865
-3.4012797808685185
-1.7962470632075664
-0.38424354134018085
0.7333441505226899
-2.4395637801588252
-5.9162818558577
-1.9817590772064253
-2.9836113651097813
-4.398371020332171
0.8008710430201187
-3.8011735905096695
-3.4712271786320223
-2.5173406322517295
-2.1818092385470598
-2.873463022446472
-3.9562823571307155
-2.9484093738753336
-8.246111242131834
-4.5698945532794
-1.4499002254082678
-1.0029486953686497
0.4725265445721554
-2.884479544294186
-3.8820449224835327
-3.9682087772633974
-4.5969315796831145
0.35568778769043236
-7.3655663912763965
-6.958246774164076
-6.612107224901544
-5.08475721560821
-0.22345610876071448
-4.473965019507361
0.4278864069827296
-6.2855311160180465
-7.708110011523107
1.4394533152986373
1.708773343595815
2.408238192059775
-0.032145954555666545
-6.386140123053554
-6.249135494168349
-4.174337999142383
1.460691791553589
-4.476556230559902
-3.8309803382053134
-2.819094167456886
-7.220924095717447
-0.541970269029581
-2.8115088131800894
-5.424424166012569
-6.839949505452929
-3.518741100338503
-3.2254578757986865
-0.7130722745517792
-0.8621487215466987
1.0608367131755136
-0.6409794605067757
-4.052576190408799
-2.9043442589595956
-4.987722017913464
-0.4276952277643774
-2.1979643501365307
-5.00658756042406
-2.485054558083174
-7.792249545157043
1.8301443978127618
-0.9994715803022783
-5.63072165166327
-6.004317265251488
-2.3132406804362957
-2.261687267951653
-2.065245664198902
-4.537225493820241
-2.6097531511922663
-7.232818129980178
0.5214601238163882
-0.927870218593971
-2.437658459434018
-7.616980021929886
0.6530430164418677
0.8685872998820648
-2.0060543805852347
0.14865786694267416
-4.119475403565863
-5.208991943937345
-0.6209833129687587
2.184372967199124
1.0834683651232833
-3.5214198189634867
-0.2587349153954612
0.2879185675871387
1.098084351349504
-0.011784696343487827
-1.207840364996049
3.5241931997534843
-3.030667960892714
1.1913750935737424
-0.6480879072672643
-0.8550097071345661
-4.127080356037236
-1.1481911440447887
-3.932033334740472
0.2556759729263316
0.1853501700115759
-3.2653254998455465
-2.164243455508857
-3.1936393190348804
-1.8972829851037971
-1.8628816861012687
-0.5480408109823156
-0.2619846763415682
-1.8139683616860405
-0.3052322301865983
-1.000418210811331
-2.325045699842935
1.0217513824964004
-4.646975782018548
-2.0674041943789714
-1.2587467398766827
-4.622269793820599
-2.7129567652021724
-6.138025903970911
-3.10369003099288
-3.3019770367587706
-5.534667506058031
-4.672887365177226
-3.9396553992272967
-1.426422604970848
-2.4414989360321075
-3.980430953187176
-2.6816985692616693
-1.6134508192454715
-2.4463538511592207
-2.506889746664957
-1.6699202155502413
-0.5998881255030674
-0.364857722897209
-0.11022883747226783
-0.07459681316953963
-1.8910447554462577
-2.410544730078153
-3.5024808179859845
-3.1507355114481257
-1.3930016158492036
-1.8782908502560944
-0.6179450422680354
-1.3307526617171919
-0.9172179298362897
0.21129655581478088
-0.556029507822905
-0.584801689590593
-3.290976103100493
-2.340714226570557
-3.4259671916394043
0.4134871099637403
-3.202352764714213
-7.172039654813015
-7.196346520309471
-7.984264132395229
-2.502528693578989
-7.690774635147114
-0.7091768784229074
-2.0457885550736674
-3.00824553854117
-4.094280416560517
-4.597634470260944
-5.672423527160034
0.2820972022897272
-3.1150776928313824
-1.7703692377679403
0.23552582114021564
-0.3463876295065074
-1.8518948423428137
-1.3243464800814018
-2.750056692604294
-1.2507077689781212
0.4672012015482794
-3.4508002666464788
-3.2388567131457937
-2.96031255271487
-1.7524043589019989
-0.3366434747843573
3.198240079158789
-6.504018532855376
-1.1577164336940313
0.0184511956793966
-0.09341068762698584
-2.884464835495223
-4.205120402436298
-7.368396999009645
-0.5478540798748451
0.37566917316854537
2.6072801973903967
-3.325968240171482
-3.0024750662503226
-1.9180680810062258
-0.18276693767019742
-1.8440453970854025
1.6466984944279783
0.793994299526029
-7.470150327946315
-5.975666309465706
-4.765039707331469
-1.9822993335726318
-2.6219447523592576
-4.824803473060822
-0.1511536324809475
-2.1409764922592123
-4.148374187781979
-2.6584369276801487
0.5963443842185245
-0.4661664674024585
-1.2890580558859952
1.0113567390777993
-3.1634287973485384
-0.7311860177265976
-4.056496615754073
-3.7367460631860543
-2.026475139360749
0.8679891928056999
-3.128619430879749
-2.195087168584583
-1.4019179697633033
-2.042630364529006
-1.4422762533283802
-0.23440667810176272
-4.330347594039078
-0.6605184112666019
0.5175711176542948
-3.9041577828642686
2.2675510253239843
-2.679050299840058
-4.334156408323058
-2.3264851978275676
-3.0607213492201284
-0.45677226962954914
-4.120386197070565
-3.568474638024366
-0.4031011714170564
2.0582890702783847
-2.6529394925188536
0.8565726691296988
-3.165888271305469
-4.721356431941507
-2.693515546796319
-0.5660171520681546
-1.4256846407587596
-6.136956085745654
-1.3073075834748944
-2.651421227951041
-5.654180272885861
-2.7789027453301944
-2.6036077802919384
-3.007966538229643
-0.780733954993304
-4.874948859356516
-1.5944901554549877
-0.06586892195275623
-0.9347529523200706
-0.39123700657586596
-2.919541390652244
2.321558995015282
1.9806532140146051
-0.6244386700752577
-1.3060461887059993
-0.36986371577715654
-2.7887792358567776
-3.0648383373852406
-2.1005861644667916
-4.608415637848577
-2.3939402629404256
-0.35499880034660725
-1.4472372679776935
-3.3769668221517217
-7.948593470097126
-6.59707134290843
-0.05054508014789204
-1.063364281766242
-3.3343781641877372
-5.321140173321003
-1.5307333853590934
-3.6357648019319027
-2.181557339569822
-6.05511892692059
0.49159966245214953
-4.306474104041907
-1.3218319774298202
-2.656758396186214
-2.6184466446471952
-3.9555426860314644
-2.1984204205174853
3.092610400339497
-2.509677598265703
-1.6940989112117952
-0.21369627014400472
-2.6855000587058666
1.97563203333616
-3.437484639353598
-4.508210139577557
-6.450740370250339
-2.6860052821469194
1.108363632406768
-1.3190582775905408
-3.0714307012920266
-3.1209007602419656
-3.9242711701731734
-1.9140335098702261
-3.6979924609045547
-6.706551831847236
-5.292304046343678
-0.05480075025142348
0.6758998676539897
1.4316470214971955
-3.5197591375813357
-0.8608662373058257
-5.562769902394859
1.9401892675062535
-1.2401063426282293
-0.5278485670145175
-0.05429711481151147
-0.8622471042291607
-0.5300933411946839
-0.8507249581273401
-1.3231468846638674
-0.7924123331450091
-4.11836222755364
-3.725531816688102
-2.9601036071731333
-0.8782493263911406
-1.387592821900743
-2.864299832072499
-3.042064823749186
-0.016328812833622957
-2.251947749287537
-2.372737075313928
-3.7169077276155535
-2.651161829378439
-7.624819261837177
-0.07810032589648742
-4.101082472591459
-2.1331503895144848
-0.6171790014715413
-2.3547255231859783
-4.302415083691501
-4.257129399361167
-0.47155598439468743
-4.147738370341987
-3.6382635584231955
-3.1904163284314646
-2.0231425667635214
-2.2444802507394748
-6.6692067246005
-3.419417045582851
-4.000854079559521
-5.5579521247912025
-0.08906673714479521
-2.89502243243098
-5.54573007236076
-2.2152113603689987
-4.119844642735934
-6.527475101631682
-0.9007110600954592
0.7736789986266203
-0.3602131605222933
-4.058653262092859
-0.46481175994484863
0.9375375633590457
-1.4479475044212575
-3.933746267227895
-2.0048884350250256
-7.052650386712609
-3.410106567072749
-2.453403591429716
-2.632584371054546
-4.317953329997955
-3.409173086437304
-2.708644812492868
-2.087354197632843
-5.126244965651275
-7.483155948447968
-3.740624460270524
-1.5913010872446496
-4.0251686130161275
-5.882777447709637
-4.941826556147644
2.8845021080212927
-4.54440523115856
-2.9935299336063506
-1.1958309585332478
-0.9431389526622233
0.3469255606858374
-4.085355011353793
-0.7048261680238729
-0.05956647246944206
-4.984625856123631
0.428265380426136
-0.9579845912653298
-0.2511258733439048
-5.632247476926737
-1.7994237442100391
-2.3875211602142747
0.003223849784261375
-4.868647712011086
-4.362181349165422
-4.5360552386372435
-3.1713215140952222
-2.142215416437602
-4.070864287905477
-3.9139200440774915
-0.40456181640878486
-2.7010775507239533
-3.8127769417395743
0.6107743461472112
-4.407031134745941
-2.178493771928859
-1.9305564073355665
-4.235641873342483
-2.2984845379964067
-1.5859784254938498
-2.0505356875021574
-1.0462973651216108
-0.9283715183248648
-2.033430679617532
-3.7151412692430186
-5.488530316839369
-1.5142841466953143
-1.749823588068269
-1.2809533824240134
-0.6607069989869466
-2.0174928322188537
-5.4187069568140975
-3.4934392848672235
-5.817867559567483
-6.406126367999861
-3.5739443909813136
1.8363937870142568
-3.813651617934388
-2.4200008364762366
-8.175916440495428
-3.899089591845796
-4.058150064965579
0.6922048900190118
-0.564082642108215
-0.2378377350854869
-2.7982364017706147
-5.133547171584892
1.8422658646974965
-4.512717586783787
-3.374788479343272
-2.557526110170586
-5.610322978652278
-1.127935882554677
-6.452327511183202
-6.252107968810953
-6.579961878660426
-0.4814133370357643
-1.4735258042298875
-1.1686201934468727
-2.6254461526231725
-5.820241623149386
-2.0416020464466094
-4.2382760433209965
0.2899309213447533
0.1702656729121959
-6.64711590002223
-2.0591822019138726
-3.6229674593069374
-4.680488970756926
-1.1935039872809758
-4.77504438108049
-2.3348450983648203
-3.6226906531834366
-2.9322102210807
-1.9262358866197327
-2.504436617063778
-2.8672447138786676
-3.9360912731072832
-0.5710773550778077
-3.8159673228664124
1.0211108173634407
-0.6488948270090518
-1.6934264656032325
-0.6724472322838972
-3.3223086077015025
-1.5268505231700478
1.706963479312545
-4.773318294828291
-3.8527886628237407
-8.282498280914776
-3.0854433213954575
3.7278354491513053
-1.6443406835651813
-1.58193918943807
-1.9814855340904822
-1.9631770350992805
-3.0435089051255746
-3.4193102900178984
-2.407129992625407
-7.5246910503316435
-2.728697978196157
-6.688459646921555
-1.7288162799066658
-2.31361269344108
-2.6786889413240274
-2.220795857972712
1.7783726430130826
-0.7075358972224652
-1.4237619167261037
-2.676133463187516
2.537261184678011
1.5605338557927404
-0.3670995612508497
-3.717222293470831
-0.812950157352516
-3.31405173555178
-4.078129101529835
-1.529301960836093
-1.562131683566209
-3.5359797013157044
-1.997082033194118
-0.9737125927980889
-6.46202022129523
-3.8074159850559353
-2.817018571754419
-3.41863622083253
-5.493051942525561
-3.681349966792745
-1.3629628712625004
-2.9534660513510853
-0.6248688979086442
-4.059956610011851
-4.906375282787727
-5.031086518780787
0.39307032410778864
0.1844175866136461
-2.2139125346261324
-2.869405954712853
-4.1446295252535235
-6.113392707580698
0.09862156117103286
-9.166661871055005
-2.06823538165178
-2.1477077819764223
-0.6656419852279167
-5.681001754152188
-4.069167339800247
0.12358201967601755
-5.108142377298688
-6.6498994264179645
-6.762069344101612
-4.928778975851842
-1.537460043351103
-1.1962326270108063
-2.909013029753461
-1.0890086358836768
-2.007180748076711
-6.934401850697081
-3.799201611442387
-3.0771523703556825
-2.893929742134504
-2.498197137289829
1.2136351198417585
1.7518834130599663
-3.449888461504927
-0.7121416398909797
-1.9113437750600275
-4.212677328273119
-0.5569973235769795
-3.957397224184072
-5.017825412821666
-4.614256635906293
-3.2447429016807705
-5.241892615498658
-1.4837874549147199
-2.7860164270238776
-8.097901531540538
-2.1903012094153644
-2.1006652825981473
-3.2921650388440704
-4.9542088218154134
-0.11204265817858713
0.7398458545315616
-3.77700167989979
-3.3971406962213995
-0.9651418867364933
-4.069865472863237
-3.9171855096289856
-5.224947112841426
-0.9115833424125943
-0.3367390476993383
-1.5171635065955207
-1.682442000431361
0.41957174516066975
-5.503512128831437
-1.2470311042398483
-0.5031080431056281
-1.421773957501179
-4.8635252588529685
-5.680803450555291
-3.779016630899403
-1.036853190386003
-3.621078940769826
-0.9030948614527919
-1.9487772757143778
0.982295804581111
-0.5536592068366543
-3.0036031294521663
-2.6490313991699956
-1.669265063392104
-2.694248141221877
-2.526612421229562
-3.6981345145443227
-4.103988036172296
0.22469745989697443
0.08860568098236815
-3.329550660872502
0.2400315429470851
-8.372262694977719
-2.926505003304385
-5.379365694695411
-3.8380507775779025
-0.290323508011934
-5.071264851557259
-9.856846077234989
-2.6057355778208273
-1.523140984678561
-3.979242112225761
-4.288086499535907
-1.9521491920374514
-2.135230188476721
-1.6621450828727529
-3.7018098060884803
-0.9850920891123024
-2.8760521853238767
-3.4427227726814986
-3.8179991556511936
-4.314682093105089
-4.303229611500977
-1.676175299199339
-3.5921387022826474
-8.590775459553788
1.151728707384045
-0.46970025510247587
-1.836696267062661
-6.7946349729658815
-4.849437731936309
-7.839437960639308
-6.3291486454767325
-1.0938470644411704
-0.18022039265399714
-3.1552318947610316
-0.47495558480715
-3.142941694180121
-2.802676106940869
-4.027688587352139
-1.2013212443876673
2.187423984111789
-6.348363074676612
0.7241217416059523
-0.8131170598035283
0.5646180233116727
-2.63602703865733
-5.029934060606541
-2.2677848994719416
0.14032448770130962
-3.1542006454923577
-2.246153420833544
-1.587055268916219
-2.5443485612942744
-0.9149074404797383
-2.3088849436830357
-2.582420708256185
-0.6408450074395069
0.4485765333884686
3.113202871649409
-0.4432888538749185
-3.750980338508028
-1.0058730562391316
-0.8500699321562927
-0.8880146211577893
-1.829504649134884
-2.951777682338555
-2.298006442868991
-2.0554974277249514
-0.24186030181240772
3.231419249090104
3.225886436357814
-1.063990737127105
0.04112445678043219
4.398730301059655
-0.9156687859332404
-0.18389523845841216
-1.551359633456191
-1.9255695180620425
-2.728720252349441
2.1304263499663123
-1.1015151545848918
2.912333251807236
-2.0921979771003727
-0.06649308871560503
0.989352429154335
3.881737674275056
-2.402585456349972
1.3505540283424409
-3.951102104917652
0.47807319196905274
-3.2292350034095993
0.8684048162317075
-0.22248634330025266
-2.6672264488778366
-1.9883805804043084
-0.9974650438414104
-1.9219534421052777
-5.844959982597097
-1.4318445374192224
1.881570567682552
-5.394345861907471
-6.724044358484808
-5.418069198072952
-2.0825929942226526
-2.102414781845106
0.5835539246822183
-3.1866120601657615
0.27991483071683504
-2.5885352327817204
0.28376896891296793
-2.4604983554852633
1.194133520520371
0.2521382988243938
-1.6332339685519686
-1.7714067311398614
0.6143037978543318
-3.8753987850552214
-1.9541917368009134
-0.5173439367159207
-7.132324072547997
-0.3058436489877938
-1.8257723610404295
-1.22705660814289
-5.266401720671934
0.7023084455721433
-4.728280492414084
0.37594578285135755
-2.8332711733554845
4.472361403970582
0.19293326974632471
-2.810773732088043
-2.8421634927535595
-5.588479320038873
-6.2280921787641415
-0.24794692227886786
-1.4351096872819336
0.3465197256083766
2.1228062037389583
-4.121215400512017
-0.6783875733700122
0.9120194172941135
-0.8503399905920057
-2.3413344554562587
-3.727429086336025
-4.780919843876875
-1.513036246368354
-2.277454364581192
-5.3457964549879256
-0.6443444013353652
-3.864688147917522
-5.473956987538916
-2.8261770342286776
-3.662582734023785
-2.4579742552700985
0.62712138081224
-4.327624835738349
-1.6894468751008973
-1.9356981964832016
-3.849885562427173
